,PPG_Rate
0,42.08390696326354
1,42.08390696326354
2,42.08390696326354
3,42.08390696326354
4,42.08390696326354
5,42.08390696326354
6,42.08390696326354
7,42.08390696326354
8,42.08390696326354
9,42.08390696326354
10,42.08390696326354
11,42.08390696326354
12,42.08390696326354
13,42.08390696326354
14,42.08390696326354
15,42.08390696326354
16,42.08390696326354
17,42.08390696326354
18,42.08390696326354
19,42.08390696326354
20,42.08390696326354
21,42.08390696326354
22,42.08390696326354
23,42.08390696326354
24,42.08390696326354
25,42.08390696326354
26,42.08390696326354
27,42.08390696326354
28,42.08390696326354
29,42.08390696326354
30,42.08390696326354
31,42.08390696326354
32,42.08390696326354
33,42.08390696326354
34,42.08390696326354
35,42.08390696326354
36,42.08390696326354
37,42.08390696326354
38,42.08390696326354
39,42.08390696326354
40,42.08390696326354
41,42.08390696326354
42,42.08390696326354
43,42.08390696326354
44,42.08390696326354
45,42.08390696326354
46,42.08390696326354
47,42.08390696326354
48,42.08390696326354
49,42.427057035525564
50,42.77429663631062
51,43.12537645558362
52,43.48002769292083
53,43.83796110192467
54,44.19886604410542
55,44.56240955939129
56,44.928235461280835
57,45.29596346553633
58,45.66518836222774
59,46.03547924186277
60,46.40637878726856
61,46.77740264380996
62,47.14803888142163
63,47.51774756277733
64,47.88596043269719
65,48.25208074457869
66,48.61548324020211
67,48.97551429967688
68,49.33149227853039
69,49.682708048962354
70,50.028425762061815
71,50.36788384727547
72,50.70029626459305
73,51.024854023743565
74,51.340726983149345
75,51.64706593943477
76,51.94300501591752
77,52.227664355707496
78,52.500153121801425
79,52.75957280289619
80,53.005020819570426
81,53.23559442103551
82,53.450394857881086
83,53.64853181119702
84,53.8291280532241
85,53.99132430935939
86,54.13428428602709
87,54.25719982374171
88,54.3592961297658
89,54.43983704023692
90,54.498130257647915
91,54.53353250625128
92,54.54545454545454
93,54.54199057868961
94,54.531804990643934
95,54.515210633908644
96,54.49252427836705
97,54.46406589225363
98,54.430157954973325
99,54.39112480372234
100,54.34729201563373
101,54.298985826865355
102,54.24653258975511
103,54.19025826889138
104,54.13048797668745
105,54.06754554880758
106,54.001753159570804
107,53.93343097725807
108,53.862896859067526
109,53.79046608530345
110,53.716451132245545
111,53.64116148302727
112,53.564903475753376
113,53.48798018800876
114,53.410691356850464
115,53.333333333333336
116,53.25619907059536
117,53.179578144520654
118,53.103756806005656
119,53.02901806387642
120,52.9556417975409
121,52.88390489850916
122,52.81408143997626
123,52.74644287373535
124,52.681258253772384
125,52.61879448598973
126,52.55931660360922
127,52.50308806792131
128,52.45037109417098
129,52.40142700250516
130,52.35651659405088
131,52.31590055234762
132,52.27983987052143
133,52.24859630476559
134,52.22243285487927
135,52.201614272817466
136,52.186407600420345
137,52.17708273772086
138,52.173913043478265
139,52.17934880546337
140,52.19532023167431
141,52.22133217807002
142,52.256899466906056
143,52.301545034709775
144,52.354798191119905
145,52.416192980089924
146,52.48526663633718
147,52.561558131187944
148,52.644606803136995
149,52.73395106952338
150,52.829127216731514
151,52.92966826726907
152,53.03510292295523
153,53.144954584281784
154,53.25874044678699
155,53.37597067601094
156,53.49614766328205
157,53.61876536521477
158,53.74330873037823
159,53.86925321712
160,53.99606440699261
161,54.1231977186301
162,54.250098227246966
163,54.3762005951789
164,54.50092911904205
165,54.623697899148006
166,54.743911136765675
167,54.86096356465966
168,54.97424101604658
169,55.083121136690814
170,55.186974244297126
171,55.285164338645714
172,55.37705026504931
173,55.461987032687425
174,55.53932728819055
175,55.60842294350735
176,55.66862695559681
177,55.719295253852344
178,55.759788809399545
179,55.78947583853
180,55.80773413056105
181,55.81395348837209
182,55.80026864352822
183,55.75995047371912
184,55.69415605782325
185,55.60410409732783
186,55.491064474532465
187,55.356348023612824
188,55.20129663369311
189,55.027273787117686
190,54.83565561952024
191,54.62782257158281
192,54.405151686011735
193,54.169009587619136
194,53.92074616979963
195,53.66168899736891
196,53.39313842384915
197,53.11636341094343
198,52.832598029176864
199,52.543038611482466
200,52.24884152582116
201,51.95112152865975
202,51.65095065817577
203,51.34935762428555
204,51.04732765186448
205,50.74580273370344
206,50.445682250685834
207,50.1478239182398
208,49.85304502019697
209,49.56212389365802
210,49.275801631223636
211,48.99478396991188
212,48.7197433391679
213,48.4513210435241
214,48.190129558629934
215,47.93675492250732
216,47.69175920696864
217,47.4556830571409
218,47.229048289962634
219,47.01236054535711
220,46.806111986539726
221,46.61078404860294
222,46.42685023715317
223,46.25477898137549
224,46.09503654849958
225,45.948090029269814
226,45.81441040671957
227,45.694475723361464
228,45.58877436488214
229,45.49780848163005
230,45.42209757267725
231,45.36218226109857
232,45.31862829343602
233,45.29203080120946
234,45.28301886792453
235,45.551230815293096
236,46.33229172183677
237,47.61204996326231
238,49.40000564700567
239,51.725820041685765
240,54.637436762225974
241,58.199720577473215
242,62.49240990106083
243,67.60563380281691
244,73.63016581095867
245,80.63787620408353
246,88.64569083447331
247,97.55499177562797
248,107.06155917268387
249,116.54676258992805
250,124.99821390297922
251,131.06108843027832
252,133.33333333333334
253,133.05720837668832
254,132.26221079691516
255,131.00587831587742
256,129.35260842237585
257,127.36995812743572
258,125.12539899680803
259,122.68370607028754
260,120.10504814706741
261,117.44375785784983
262,114.74770002787845
263,112.05812538816905
264,109.40988835725679
265,106.83191525602447
266,104.34782608695653
267,101.97663345179198
268,99.73346256360551
269,97.63025446782646
270,95.67642956764297
271,93.87950021026522
272,92.24562976243836
273,90.78014184397163
274,89.48798782476355
275,88.37418393843224
276,87.44423199490122
277,86.70454021815692
278,86.16286372200125
279,85.82878814536781
280,85.71428571428572
281,85.82482536270822
282,86.14422091580822
283,86.65599652768358
284,87.34551022640271
285,88.19923794798167
286,89.20413292376432
287,90.34703170517861
288,91.6140874153952
289,92.99021891010712
290,94.45857235791591
291,96.0
292,97.5925699621166
293,99.21113112615691
294,100.82696799444479
295,102.40759144679897
296,103.91672088484059
297,105.31451931953052
298,106.55814263793448
299,107.60265436049448
300,108.4023347359848
301,108.9123764064098
302,109.09090909090908
303,108.93972430614582
304,108.50065333014335
305,107.79835804794207
306,106.86048830001269
307,105.71653995122648
308,104.3967913870345
309,102.9313686121829
310,101.34946966701621
311,99.67876103202244
312,97.94494376422506
313,96.17147611046768
314,94.37943234027567
315,92.58747408756831
316,90.81190985967561
317,89.06681975435468
318,87.36422506409022
319,85.71428571428571
320,84.12551190764971
321,82.60497961356853
322,81.15854246107678
323,79.79103508012126
324,78.50646497196959
325,77.30819160514548
326,76.19909268330511
327,75.18171848300136
328,74.25843588225662
329,73.43156426320576
330,72.70350593777363
331,72.07687417477628
332,71.55462235869554
333,71.14017834517878
334,70.83758876326192
335,70.65167893008653
336,70.58823529411765
337,70.69351993113382
338,70.99910977196467
339,71.491738422155
340,72.16035634743876
341,72.99545010516681
342,73.98843930635839
343,75.13111531807354
344,76.41509433962266
345,77.83126425133013
346,79.36921074791395
347,81.0166147354438
348,82.75862068965517
349,84.57718545105998
350,86.45042941716002
351,88.35202761000863
352,90.2506963788301
353,92.10985130317938
354,93.8875305623472
355,95.53669127725499
356,97.00598802395209
357,98.24112567956509
358,99.18683631493352
359,99.78945848722914
360,100.0
361,99.92685508405799
362,99.71287833415455
363,99.36704996190383
364,98.89922148332765
365,98.31988383191305
366,97.63994348562879
367,96.87051327597382
368,96.02272296296168
369,95.10755305117999
370,94.13569380193132
371,93.11743004799105
372,92.06255129253702
373,90.98028569556486
374,89.87925591921828
375,88.7674543999601
376,87.65223541093422
377,86.54032123679163
378,85.43781986870175
379,84.35025180403079
380,83.28258377188023
381,82.23926747601978
382,81.22428172977959
383,80.24117663749104
384,79.29311874308564
385,78.38293631151154
386,77.51316412898115
387,76.68608740253927
388,75.90378450871978
389,75.1681684871569
390,74.48102730084297
391,73.84406299376022
392,73.25892997269888
393,72.72727272727273
394,72.23272704476118
395,71.75693783887155
396,71.29863188354128
397,70.85660251159325
398,70.42970412755808
399,70.01684727448313
400,69.61699419776727
401,69.22915485606218
402,68.85238333531655
403,68.48577462725349
404,68.12846173807775
405,67.77961309711064
406,67.43843023842861
407,67.10414573150926
408,66.77602133942409
409,66.45334638531527
410,66.13543630979441
411,65.8216314035466
412,65.51129570084139
413,65.20381602087627
414,64.89860114492868
415,64.59508111819358
416,64.29270666595298
417,63.99094871437928
418,63.689298006829475
419,63.387264806957845
420,63.08437868037063
421,62.78018834688057
422,62.474261595700916
423,62.166185256157576
424,61.85556521670335
425,61.542026485197276
426,61.22521328357292
427,60.90478917016883
428,60.580437183138706
429,60.25185999850402
430,59.918780096563644
431,59.58093993053769
432,59.238102091501254
433,58.890049463861814
434,58.53658536585366
435,58.16946780308401
436,57.78182757448416
437,57.37552585162762
438,56.952393344528026
439,56.51422112716763
440,56.062752669380885
441,55.59967705318791
442,55.12662333421004
443,54.645155994547935
444,54.15677142235567
445,53.66289534511435
446,53.16488113804849
447,52.6640089259538
448,52.161485395608615
449,51.658444236607735
450,51.155947130582284
451,50.65498521205513
452,50.15648092836136
453,49.6612902308876
454,49.17020503514094
455,48.68395589265743
456,48.203214823346805
457,47.728598262414316
458,47.26067008139896
459,46.79994464804205
460,46.34688989459008
461,45.901930368703624
462,45.46545024536285
463,45.03779628201836
464,44.61928070273315
465,44.21018400020259
466,43.810757647338725
467,43.42122671258022
468,43.04179237526168
469,42.67263433926801
470,42.31391314483718
471,41.965772379781505
472,41.628340792599595
473,41.301734310971554
474,40.98605796999314
475,40.68140775523236
476,40.38787236630443
477,40.10553490718042
478,39.834474509886455
479,39.5747678986345
480,39.32649090176658
481,39.089719919207994
482,38.86453335342672
483,38.65101301219806
484,38.44924549179108
485,38.25932354953871
486,38.081347475139935
487,37.915426470484995
488,37.76168004830663
489,37.62023946055729
490,37.4912491681123
491,37.37486836421832
492,37.271272565069225
493,37.18065528201782
494,37.103229791253135
495,37.03923101831749
496,36.98891755664484
497,36.952573841414974
498,36.93051250248851
499,36.92307692307692
500,36.92700544373999
501,36.93864402329979
502,36.95777901156123
503,36.98420514699242
504,37.01772471053017
505,37.05814672353616
506,37.105286185301225
507,37.15896334594967
508,37.21900301100606
509,37.285233874258864
510,37.357487875895345
511,37.435599583192285
512,37.519405591334774
513,37.60874394220093
514,37.70345355919965
515,37.80337369648266
516,37.90834340107471
517,38.01820098667859
518,38.132783518117016
519,38.25192630557285
520,38.375462407985104
521,38.50322214515085
522,38.635032618275005
523,38.77071723890176
524,38.91009526635337
525,39.05298135399646
526,39.19918510485159
527,39.348510637261256
528,39.50075616153232
529,39.65571356867412
530,39.81316803256029
531,39.9728976270521
532,40.13467295983265
533,40.298256824913075
534,40.46340387598412
535,40.629860322996386
536,40.79736365455906
537,40.965642388948154
538,41.13441585670786
539,41.30339401801134
540,41.47227731811522
541,41.64075658439368
542,41.8085129685681
543,41.97521793785366
544,42.14053331882008
545,42.304111397806544
546,42.465595081733554
547,42.624618123115646
548,42.78080541299044
549,42.93377334533808
550,43.083130256366715
551,43.22847694177751
552,43.36940725479572
553,43.5055087873564
554,43.63636363636363
555,43.76669216779552
556,43.90136363594132
557,44.04017709454906
558,44.18292754016637
559,44.329405445974764
560,44.47939630794475
561,44.63268020400553
562,44.789031367123386
563,44.948217773383234
564,45.11000074637022
565,45.27413457934875
566,45.44036617693849
567,45.60843471818592
568,45.77807134312761
569,45.94899886513431
570,46.12093151151268
571,46.29357469502134
572,46.46662481912799
573,46.63976911999184
574,46.81268554829837
575,46.985042694197084
576,47.156499758695645
577,47.3267065749409
578,47.495303682865384
579,47.66192246069282
580,47.82618531677476
581,47.987705945166425
582,48.146089648242025
583,48.30093372949142
584,48.45182795942918
585,48.59835511727855
586,48.74009161076589
587,48.87660817596966
588,49.007470658713984
589,49.132240878475905
590,49.25047757518864
591,49.36173743867258
592,49.46557621971032
593,49.56154992100863
594,49.64921606546099
595,49.728135038247025
596,49.79787149838714
597,49.85799585442129
598,49.90808579791123
599,49.94772788748902
600,49.976519175203535
601,49.994068865967876
602,50.0
603,49.99285726895269
604,49.97179153065111
605,49.93736256438675
606,49.89014921315251
607,49.83074643163559
608,49.7597624092847
609,49.67781578848821
610,49.585532995428146
611,49.48354569866789
612,49.3724884080371
613,49.25299622393696
614,49.12570274483867
615,48.99123813851944
616,48.8502273804974
617,48.70328866120844
618,48.551031961729194
619,48.39405779629726
620,48.23295611851899
621,48.06830538698476
622,47.90067178502879
623,47.73060858856897
624,47.55865567533291
625,47.38533916830838
626,47.211171205938605
627,47.03664983140194
628,46.862258993258315
629,46.68846864979825
630,46.515734969581295
631,46.344500620886315
632,46.17519514310494
633,46.00823539347987
634,45.844026063011945
635,45.68296025582458
636,45.52542012677341
637,45.371777572615585
638,45.222394972601556
639,45.07762597491796
640,44.93781632598858
641,44.80330474023003
642,44.67442380845827
643,44.55150094374874
644,44.43485936417088
645,44.324819112444615
646,44.221698113207545
647,44.12581326923875
648,44.03748159866315
649,43.957021415865235
650,43.88475355957775
651,43.82100267238977
652,43.766098536745766
653,43.720377473395764
654,43.68418380921707
655,43.6578714223752
656,43.641805373942404
657,43.63636363636363
658,43.646894090208946
659,43.67812318688148
660,43.72954930549081
661,43.800722661844645
662,43.891240853146094
663,44.00074480134045
664,44.12891504008447
665,44.27546829670829
666,44.44015432592638
667,44.62275295658733
668,44.82307131656195
669,45.040941204064715
670,45.27621657637422
671,45.52877112914231
672,45.79849594132169
673,46.08529716225604
674,46.38909371871136
675,46.70981502062703
676,47.04739864516685
677,47.40178797929043
678,47.77292980157771
679,48.16077178445468
680,48.5652598983217
681,48.986335699407725
682,49.42393348350124
683,49.877977288076885
684,50.348377725787955
685,50.835028632870646
686,51.337803516756715
687,51.856551788169
688,52.39109476423772
689,52.94122143079057
690,53.50668395400481
691,54.08719293414325
692,54.68241239720905
693,55.29195452413423
694,55.915374121653834
695,56.55216284440469
696,57.20174318411625
697,57.86346224911794
698,58.53658536585366
699,59.292309008693564
700,60.20048956026757
701,61.25904645169219
702,62.46659328548028
703,63.82208314000917
704,65.32442872616191
705,66.97207819433972
706,68.76252827426251
707,70.69175775216918
708,72.75356687450034
709,74.93881316572592
710,77.23454267576798
711,79.62302936957816
712,82.0807558276954
713,84.57739688263393
714,87.07490444735504
715,89.52683462539686
716,91.8781017363837
717,94.06537784218374
718,96.01836515030514
719,97.66213304540095
720,98.92061336965523
721,99.72117861368514
722,100.0
723,99.9413900041254
724,99.76972655150604
725,99.49177325517962
726,99.11486518591686
727,98.6467678566743
728,98.09554080210222
729,97.46940911081909
730,96.77664554571265
731,96.02546515073509
732,95.22393353556346
733,94.37988938593823
734,93.50088119054314
735,92.59411771779357
736,91.66643142177594
737,90.72425370261463
738,89.77360078429726
739,88.82006889068012
740,87.86883738452302
741,86.92467857108416
742,85.99197294376978
743,85.07472875259253
744,84.17660489643328
745,83.30093626884805
746,82.4507608177692
747,81.62884770698174
748,80.8377260882933
749,80.07971410572888
750,79.35694785580462
751,78.6714101207418
752,78.02495877480544
753,77.41935483870968
754,76.8425429715197
755,76.28060492802777
756,75.73249366157515
757,75.1972153398429
758,74.67382574868375
759,74.16142704254082
760,73.65916480782288
761,73.16622540924693
762,72.68183359233473
763,72.20525031802175
764,71.73577080776349
765,71.27272277964724
766,70.81546485787966
767,70.36338513965553
768,69.91589990485117
769,69.47245245525102
770,69.03251207113357
771,68.59557307402933
772,68.16115398533789
773,67.72879677126785
774,67.29806616525619
775,66.86854905964222
776,66.43985395892858
777,66.01161048746508
778,65.58346894484815
779,65.1550999027489
780,64.72619383726862
781,64.2964607912816
782,63.86563006156343
783,63.43344990582331
784,62.999687265066434
785,62.56412749700803
786,62.12657411654911
787,61.686848539605776
788,61.244789826862664
789,60.80025442429597
790,60.3531158975862
791,59.903264657813544
792,59.45060767610171
793,58.99506818514859
794,58.53658536585366
795,58.06482914986203
796,57.57090452701305
797,57.056893029691494
798,56.52483737413895
799,55.976730812588784
800,55.4145079268536
801,54.840036836783455
802,54.25511277515627
803,53.66145296275724
804,53.06069270352653
805,52.45438260947423
806,51.84398685826295
807,51.230882382578294
808,50.616358889248296
809,50.0016196071318
810,49.38778266567323
811,48.77588301034063
812,48.16687476657487
813,47.56163397006654
814,46.960961587866834
815,46.365586761792954
816,45.77617021260813
817,45.19330775038095
818,44.61753384313011
819,44.049325202241754
820,43.489104349139126
821,42.93724313323922
822,42.39406617632386
823,41.85985422307027
824,41.33484738163243
825,40.81924824184903
826,40.313224861899556
827,39.816913617058155
828,39.33042190663758
829,38.853830717301335
830,38.38719704268323
831,37.930556160723185
832,37.48392377133442
833,37.04729799799307
834,36.62066125761225
835,36.20398200365636
836,35.797216347891364
837,35.400309566475315
838,35.01319749628981
839,34.63580782751612
840,34.26806129848429
841,33.90987279878444
842,33.561152386538666
843,33.221806225599906
844,32.89173744828122
845,32.5708469490315
846,32.25903411426998
847,31.956197493377378
848,31.662235415620216
849,31.377046557562736
850,31.1005304652986
851,30.832588035618357
852,30.573121960017264
853,30.322037135246262
854,30.079241043916333
855,29.84464410848534
856,29.61816002178684
857,29.399706057103977
858,29.18920336064837
859,28.98657722917396
860,28.791757375340946
861,28.60467818334374
862,28.425278957230947
863,28.25350416427447
864,28.089303675689283
865,27.932633006965958
866,27.783453560054735
867,27.641732869633753
868,27.507444855705092
869,27.380570084792687
870,27.261096042064715
871,27.149017416773898
872,27.04433640350078
873,26.947063021801785
874,26.857215457005363
875,26.77482042507085
876,26.699913564625653
877,26.63253985953352
878,26.572754095620617
879,26.520621355504513
880,26.476217555836705
881,26.439630031690005
882,26.41095817330403
883,26.39031412095422
884,26.377823524341856
885,26.373626373626376
886,26.48259950428109
887,26.801601076440296
888,27.325172812946537
889,28.05532897334721
890,29.000781609241063
891,30.176683776653192
892,31.6047522720705
893,33.31367272038616
894,35.339693497069426
895,37.727278012705476
896,40.529590648469565
897,43.80840648286644
898,47.63270319603421
899,52.074635888784485
900,57.20072791808768
901,63.05492754280385
902,69.62899729837356
903,76.81570785576933
904,84.34442778783921
905,91.71191939622555
906,98.14702155478113
907,102.67618856738996
908,104.34782608695653
909,104.26666270819513
910,104.02798527316288
911,103.63999061701583
912,103.11199750295141
913,102.45421210551072
914,101.67749249579234
915,100.79312023926222
916,99.81258587964449
917,98.74739356309102
918,97.60888848886968
919,96.40810936875033
920,95.15566672243587
921,93.86164668694617
922,92.53553910240302
923,91.18618796028433
924,89.8217618498752
925,88.44974178887436
926,87.0769237423343
927,85.70943318506254
928,84.35274921177813
929,83.01173591524854
930,81.69067900831482
931,80.39332593915908
932,79.12292802341771
933,77.88228337949099
934,76.67377969637823
935,75.4994360816493
936,74.36094342844433
937,73.25970290433398
938,72.19686230251743
939,71.17335010914688
940,70.18990723203314
941,69.247116408353
942,68.34542936502484
943,67.48519184783312
944,66.66666666666667
945,65.86021798070973
946,65.03808888541056
947,64.20319711146556
948,63.35830198438319
949,62.50599893267012
950,61.64871641049805
951,60.788714963999084
952,59.928088169018196
953,59.068765173746954
954,58.21251459071825
955,57.360949497804405
956,56.51553332591128
957,55.677586430934085
958,54.848293168337726
959,54.02870930970091
960,53.2197696611369
961,52.422295763222195
962,51.63700357060547
963,50.86451102661332
964,50.105345463787394
965,49.3599507753217
966,48.628694314818986
967,47.9118734926946
968,47.209722046999254
969,46.522415974506266
970,45.8500791147232
971,45.19278838516098
972,44.55057867084399
973,43.92344737478986
974,43.31135863914004
975,42.71424724888821
976,42.13202223182994
977,41.56457016953435
978,41.01175823489545
979,40.47343697223103
980,39.94944283602134
981,39.439600504275354
982,38.94372498222516
983,38.46162351162167
984,37.993097300370124
985,37.53794308663312
986,37.095954550865144
987,36.6669235885469
988,36.25064145567632
989,35.84689979835981
990,35.455491577142084
991,35.07621189602523
992,34.70885874546265
993,34.35323366797768
994,34.00914235445183
995,33.6763951785572
996,33.35480767627342
997,33.04420097693122
998,32.74440219176358
999,32.455244765521265
1000,32.17656879632154
1001,31.90822132854632
1002,31.650056623288553
1003,31.401936410562744
1004,31.163730127244406
1005,30.935315144486193
1006,30.7165769881718
1007,30.507409555813698
1008,30.30771533317588
1009,30.117405613808977
1010,29.93640072462016
1011,29.76463026056737
1012,29.602033331563813
1013,29.44855882470799
1014,29.304165685015718
1015,29.168823217926715
1016,29.04251141699032
1017,28.92522132030586
1018,28.816955399505865
1019,28.717727985328544
1020,28.62756573413388
1021,28.546508140081382
1022,28.474608098111972
1023,28.411932523370982
1024,28.35856303328027
1025,28.314596699128025
1026,28.28014687480467
1027,28.255344111188773
1028,28.240337165693997
1029,28.235294117647058
1030,28.260977648749066
1031,28.336600517256056
1032,28.460381561929356
1033,28.63096675364464
1034,28.84737228995193
1035,29.10893713128871
1036,29.415282643709254
1037,29.766277431976008
1038,30.16200573844402
1039,30.602737977293604
1040,31.08890209133962
1041,31.62105447483388
1042,32.19984921139663
1043,32.826004340142546
1044,33.50026379292711
1045,34.22335354949794
1046,34.9959304449895
1047,35.81852194872556
1048,36.691455132876165
1049,37.61477298956108
1050,38.58813627054415
1051,39.61070916192697
1052,40.6810274289461
1053,41.79684825084618
1054,42.95498190628664
1055,44.15110687125797
1056,45.379571862154634
1057,46.63319098981605
1058,47.90304153604449
1059,49.178277887369795
1060,50.445979686858124
1061,51.69105691565044
1062,52.89623875106211
1063,54.04217573057718
1064,55.107684773211496
1065,56.0701626169764
1066,56.906183978441696
1067,57.592285486577225
1068,58.10591543556499
1069,58.42650432607995
1070,58.53658536585366
1071,58.510737666012695
1072,58.434208567252924
1073,58.30870529089441
1074,58.13616119736869
1075,57.918706717671434
1076,57.65863922633997
1077,57.35839252150709
1078,57.020506531613165
1079,56.64759780667818
1080,56.24233127886665
1081,55.80739369666865
1082,55.345469053399334
1083,54.85921624750268
1084,54.35124913239862
1085,53.82411903978126
1086,53.280299794149535
1087,52.72217517909619
1088,52.152028768083795
1089,51.572035994189626
1090,50.98425830428965
1091,50.39063922274755
1092,49.79300213703312
1093,49.19304961183095
1094,48.59236403807234
1095,47.99240942788059
1096,47.39453417465596
1097,46.79997460851331
1098,46.209859190186286
1099,45.62521320060654
1100,45.04696379804187
1101,44.4759453294348
1102,43.91290479702743
1103,43.35850739518831
1104,42.81334204535706
1105,42.27792686904515
1106,41.75271454979354
1107,41.23809754485099
1108,40.73441311610444
1109,40.24194815749341
1110,39.760943802828734
1111,39.29159980367708
1112,38.83407867184304
1113,38.38850958506219
1114,37.95499205789179
1115,37.53359938253358
1116,37.12438184652146
1117,36.72736973593118
1118,36.3425761340854
1119,35.96999952669997
1120,35.6096262251013
1121,35.26143261959115
1122,34.925387275290014
1123,34.6014528828915
1124,34.28958807674476
1125,33.98974913257881
1126,33.70189155701957
1127,33.42597158084966
1128,33.1619475677431
1129,32.90978134999028
1130,32.669439502527304
1131,32.440894566412744
1132,32.2241262327674
1133,32.01912249811877
1134,31.82588080208539
1135,31.644409158406326
1136,31.47472729048106
1137,31.316867782846135
1138,31.170877260391453
1139,31.03681760762572
1140,30.914767240954312
1141,30.80482244775407
1142,30.70709880704105
1143,30.621732707756045
1144,30.548882982171595
1145,30.488732673691317
1146,30.441490960413006
1147,30.407395258317138
1148,30.38671353088664
1149,30.379746835443036
1150,30.59035396760178
1151,31.206078550280026
1152,32.222774738935854
1153,33.65974720560226
1154,35.55844604550489
1155,37.98358733880422
1156,41.02612202785724
1157,44.807539631725874
1158,49.48453608247422
1159,55.25168950925283
1160,62.336551822424916
1161,70.97480832420594
1162,81.34080290104373
1163,93.39169424575638
1164,106.57894736842107
1165,119.45108213286002
1166,129.42264304471658
1167,133.33333333333334
1168,133.30579906394513
1169,133.22482207191086
1170,133.09292878712432
1171,132.91274711523732
1172,132.6869874730174
1173,132.4184244341546
1174,132.10987916108908
1175,131.7642027713354
1176,131.38426075953436
1177,130.97291856975912
1178,130.5330283870096
1179,130.06741719282988
1180,129.57887610793938
1181,129.07015102494518
1182,128.5439345167667
1183,128.00285899143213
1184,127.4494910514048
1185,126.88632700550366
1186,126.31578947368422
1187,125.53442533397697
1188,124.36028536114134
1189,122.83218748741801
1190,120.99296871352506
1191,118.88757459257135
1192,116.56132217643918
1193,114.05842145529319
1194,111.42080094510779
1195,108.68724810321812
1196,105.89284794654307
1197,103.06868478085917
1198,100.24176186997663
1199,97.43509073031687
1200,94.66790366033132
1201,91.95594825151778
1202,89.31182940020184
1203,86.74537155506006
1204,84.26398079481004
1205,81.87299237063117
1206,79.57599436295035
1207,77.37512206312554
1208,75.27132067601919
1209,73.26457608362044
1210,71.35411486605102
1211,69.5385756942759
1212,67.81615472251843
1213,66.18472783036616
1214,64.64195258530592
1215,63.18535268587957
1216,61.812387456052925
1217,60.520508730492836
1218,59.30720722460129
1219,58.17005024002351
1220,57.1067123271801
1221,56.11500031784636
1222,55.19287395642079
1223,54.338463199719335
1224,53.5500831220513
1225,52.82624725444483
1226,52.16568010341206
1227,51.56732953487547
1228,51.03037967244669
1229,50.55426494634034
1230,50.13868594076194
1231,49.78362772556683
1232,49.489381425560815
1233,49.256569882863154
1234,49.086178411301184
1235,48.97959183673469
1236,48.90668520256673
1237,48.83614673970335
1238,48.76790764652337
1239,48.70190038367374
1240,48.63805861383047
1241,48.57631714405618
1242,48.516611870638904
1243,48.458879726303195
1244,48.40305862969201
1245,48.34908743702416
1246,48.29690589583747
1247,48.24645460073439
1248,48.19767495105127
1249,48.15050911037775
1250,48.10489996785748
1251,48.06079110120582
1252,48.01812674138379
1253,47.97685173887219
1254,47.93691153149291
1255,47.89825211372801
1256,47.86082000749058
1257,47.824562234304054
1258,47.78942628885011
1259,47.75536011384715
1260,47.72231207622479
1261,47.69023094456138
1262,47.65906586775433
1263,47.62876635489478
1264,47.599282256320365
1265,47.570563745821325
1266,47.542561303977266
1267,47.51522570260314
1268,47.48850799028477
1269,47.46235947898526
1270,47.436731731705294
1271,47.41157655118108
1272,47.386845969605034
1273,47.36249223935511
1274,47.33846782471961
1275,47.314725394604906
1276,47.2912178162146
1277,47.267898149688776
1278,47.244719643692655
1279,47.22163573194469
1280,47.19860003067401
1281,47.17556633699769
1282,47.15248862820862
1283,47.12932106196433
1284,47.106017977367806
1285,47.08253389693106
1286,47.05882352941177
1287,47.03489458873185
1288,47.01080248099913
1289,46.98657351783588
1290,46.962233906697875
1291,46.93780974963604
1292,46.91332704235289
1293,46.88881167355077
1294,46.86428942456897
1295,46.83978596930639
1296,46.81532687442681
1297,46.79093759984368
1298,46.76664349948126
1299,46.742469822309275
1300,46.71844171364781
1301,46.69458421673986
1302,46.670922274588506
1303,46.64748073205579
1304,46.62428433822107
1305,46.6013577489958
1306,46.5787255299926
1307,46.55641215964614
1308,46.534442032583726
1309,46.51283946324353
1310,46.49162868973851
1311,46.4708338779645
1312,46.450479125950636
1313,46.43058846845118
1314,46.41118588177707
1315,46.39229528886685
1316,46.3739405645957
1317,46.35614554132245
1318,46.33893401467428
1319,46.32232974956874
1320,46.306356486473916
1321,46.29103794790678
1322,46.27639784517066
1323,46.26245988533305
1324,46.24924777844487
1325,46.236785245003155
1326,46.22509602365886
1327,46.214203879172494
1328,46.204132610619794
1329,46.19490605985094
1330,46.186548120206396
1331,46.17908274549322
1332,46.17253395922619
1333,46.166925864138
1334,46.162282651963885
1335,46.15862861350583
1336,46.155988148982395
1337,46.154385778670544
1338,46.15384615384615
1339,46.23355470998722
1340,46.46647098667871
1341,46.84525757209315
1342,47.36478711162255
1343,48.021700768568884
1344,48.81404174573055
1345,49.740932642487046
1346,50.80227104418662
1347,51.998420844848006
1348,53.32987820678932
1349,54.79689138140487
1350,56.399013428336524
1351,58.13456683321269
1352,60.00000000000001
1353,61.9891187710612
1354,64.0921831205232
1355,66.29487205299081
1356,68.57714095301567
1357,70.91202756541402
1358,73.26450694197224
1359,75.59055118110237
1360,77.83661119515887
1361,79.93979267315677
1362,81.82902584493043
1363,83.42750006334086
1364,84.65651995063762
1365,85.44072238511642
1366,85.71428571428572
1367,85.64785619191399
1368,85.45099418277034
1369,85.12818781181674
1370,84.68495704532286
1371,84.12771575340322
1372,83.46362195470178
1373,82.70042194092828
1374,81.84629369607741
1375,80.9096944885175
1376,79.89921679086297
1377,78.82345584441978
1378,77.69089130116565
1379,76.50978450753115
1380,75.28809218950065
1381,74.0333965927987
1382,72.75285154643637
1383,71.45314346144785
1384,70.14046594770174
1385,68.82050652089349
1386,67.49844376468383
1387,66.17895329206529
1388,64.8662208971353
1389,63.563961385848415
1390,62.275441705932856
1391,61.00350714813959
1392,59.750609551968196
1393,58.51883661010655
1394,57.309941520467845
1395,56.12537237839349
1396,54.96630083150961
1397,53.833649634452
1398,52.72811883983707
1399,51.65021044584813
1400,50.60025139055102
1401,49.57841483979764
1402,48.58473976074273
1403,47.61914880806921
1404,46.68146457644263
1405,45.771424291871014
1406,44.888693027790026
1407,44.03287553994767
1408,43.2035268185158
1409,42.40016145715079
1410,41.62226193768342
1411,40.869285926334214
1412,40.14067267331817
1413,39.43584860281998
1414,38.75423217490555
1415,38.09523809523809
1416,37.458280942678904
1417,36.84277827912125
1418,36.24815330033536
1419,35.673837081270115
1420,35.119270464213635
1421,34.58390563349126
1422,34.06720741599072
1423,33.56865434275866
1424,33.087739503201576
1425,32.62397122004245
1426,32.1768735701135
1427,31.74598677329254
1428,31.330867469392903
1429,30.931088900578647
1430,30.546241014876
1431,30.175930504570513
1432,29.819780791698886
1433,29.47743197144687
1434,29.14854072303365
1435,28.832780196584533
1436,28.529839883551674
1437,28.23942547742697
1438,27.96125873078811
1439,27.695077314119636
1440,27.440634681346367
1441,27.1976999465982
1442,26.96605777638725
1443,26.745508301114395
1444,26.53586704962746
1445,26.336964910425017
1446,26.148648123034157
1447,25.97077830308642
1448,25.803232504672966
1449,25.645903323677736
1450,25.498699045967047
1451,25.36154384455925
1452,25.234378030211086
1453,25.117158360243742
1454,25.009858410898566
1455,24.912469019066286
1456,24.824998799886266
1457,24.747474747474744
1458,24.679942926928362
1459,24.622469266779436
1460,24.5751404622735
1461,24.538065001222737
1462,24.511374325792577
1463,24.49522414543811
1464,24.489795918367346
1465,24.541046419312554
1466,24.69152174318447
1467,24.937906710609518
1468,25.27876204126859
1469,25.714288796986725
1470,26.24617035944476
1471,26.877470950066552
1472,27.61257493216423
1473,28.45715391047855
1474,29.418149470584897
1475,30.50375844578379
1476,31.72340476509513
1477,33.087676901554325
1478,34.60820218225329
1479,36.29741805357213
1480,38.16818506485534
1481,40.233166263481934
1482,42.50387299201861
1483,44.9892495310631
1484,47.693643862591216
1485,50.6140004997802
1486,53.73613539103496
1487,57.030047930241516
1488,60.444441438592996
1489,63.90101645108157
1490,67.28969851658186
1491,70.46669708793554
1492,73.25790844503278
1493,75.47016856085195
1494,76.911591643019
1495,77.41935483870968
1496,77.39010446807298
1497,77.30451483800765
1498,77.16599184563199
1499,76.97812236351541
1500,76.74462883368268
1501,76.46932595837451
1502,76.15608017257215
1503,75.80877243178419
1504,75.43126469973946
1505,75.02737038017024
1506,74.6008288091766
1507,74.15528381274754
1508,73.69426623961559
1509,73.2211803033553
1510,72.73929350919796
1511,72.25172989940083
1512,71.76146632464734
1513,71.27133143601552
1514,70.78400709052804
1515,70.30203187116868
1516,69.82780643757394
1517,69.3636004446107
1518,68.91156079115906
1519,68.473720989302
1520,68.052011473692
1521,67.64827070127393
1522,67.26425692217951
1523,66.90166053307232
1524,66.56211695430827
1525,66.24722000196171
1526,65.95853575518646
1527,65.69761694882509
1528,65.46601795108207
1529,65.26531041702027
1530,65.09709974136354
1531,64.96304246950616
1532,64.86486486486486
1533,64.78587837591574
1534,64.70822980696519
1535,64.63196232645645
1536,64.55711880325858
1537,64.48374182778679
1538,64.41187373358147
1539,64.34155661934338
1540,64.27283237142404
1541,64.20574268677176
1542,64.14032909633433
1543,64.0766329889216
1544,64.01469563553188
1545,63.95455821414756
1546,63.89626183500707
1547,63.83984756636111
1548,63.78535646072322
1549,63.73282958162547
1550,63.68230803089212
1551,63.6338329764454
1552,63.58744568065908
1553,63.54318752927723
1554,63.50110006091713
1555,63.461224997176934
1556,63.423604273370756
1557,63.38828006991515
1558,63.355294844393285
1559,63.32469136432483
1560,63.296512740671524
1561,63.270802462110694
1562,63.24760443011086
1563,63.2269629948462
1564,63.20892299198858
1565,63.19352978041861
1566,63.18082928089957
1567,63.17086801576104
1568,63.16369314964113
1569,63.15935253134037
1570,63.15789473684211
1571,63.29213932076919
1572,63.68410411114379
1573,64.32168939277096
1574,65.19731085441627
1575,66.30700138698766
1576,67.64968516306136
1577,69.22654579140867
1578,71.04042373767426
1579,73.09518399804945
1580,75.39499551640885
1581,77.94346077682557
1582,80.74252912919579
1583,83.79112305531844
1584,87.08340633263526
1585,90.60663244188763
1586,94.33853878640416
1587,98.244308499688
1588,102.27322011855205
1589,106.35525846856437
1590,110.39817182807576
1591,114.28571428571428
1592,118.36784016317378
1593,123.07984047698649
1594,128.4080682327601
1595,134.3217851165889
1596,140.7620387353831
1597,147.62799251735123
1598,154.7612422168553
1599,161.92995708836514
1600,168.81666430466848
1601,175.0158786173422
1602,180.04956129459813
1603,183.4076489249436
1604,184.6153846153846
1605,184.03198714125858
1606,182.35698254305964
1607,179.72690031679883
1608,176.29911928592176
1609,172.23894410763833
1610,167.70860915308413
1611,162.85902116431976
1612,157.8244208544839
1613,152.7196845709251
1614,147.63973422393218
1615,142.6604475221862
1616,137.84050399709065
1617,133.2237077231103
1618,128.84145108615783
1619,124.71509845537763
1620,120.85816154832169
1621,117.27820668339815
1622,113.97848034410023
1623,110.95926808129617
1624,108.2190176093854
1625,105.75526426302316
1626,103.5653991174087
1627,101.64731949299642
1628,100.0
1629,98.50363118655348
1630,97.03961617517731
1631,95.60965417372466
1632,94.21517265214499
1633,92.85735482764763
1634,91.53716573106686
1635,90.25537675860811
1636,89.012588661009
1637,87.80925296098678
1638,86.64569182076458
1639,85.52211640555875
1640,84.43864380719026
1641,83.39531260540794
1642,82.39209715393551
1643,81.42892068444674
1644,80.5056673253052
1645,79.62219313355901
1646,78.77833623886247
1647,77.97392619713035
1648,77.20879265018378
1649,76.4827733857266
1650,75.79572188996117
1651,75.14751448323784
1652,74.53805712752889
1653,73.9672919934015
1654,73.4352038736958
1655,72.94182653144999
1656,72.48724907091142
1657,72.07162242289675
1658,71.69516603949894
1659,71.3581748983919
1660,71.0610269240009
1661,70.80419094187995
1662,70.58823529411765
1663,70.3947334669249
1664,70.20490127540279
1665,70.01884915028775
1666,69.83668551203613
1667,69.65851692884969
1668,69.48444827599127
1669,69.31458289636717
1670,69.14902276237686
1671,68.98786863905097
1672,68.83122024852175
1673,68.67917643589104
1674,68.5318353365831
1675,68.38929454529078
1676,68.25165128664545
1677,68.11900258776313
1678,67.991445452841
1679,67.86907704000134
1680,67.75199484060244
1681,67.64029686125993
1682,67.53408180884584
1683,67.4334492787578
1684,67.33849994677651
1685,67.24933576485726
1686,67.16606016122878
1687,67.0887782452031
1688,67.01759701713102
1689,66.95262558397164
1690,66.89397538097882
1691,66.8417604000459
1692,66.79609742528957
1693,66.75710627649693
1694,66.72491006110609
1695,66.69963543544007
1696,66.68141287596742
1697,66.67037696142074
1698,66.66666666666667
1699,66.84229984125135
1700,67.35188797268702
1701,68.17564595384613
1702,69.30025641626274
1703,70.71702811446242
1704,72.42031072354169
1705,74.40598436542429
1706,76.66987343289281
1707,79.20595115871528
1708,82.00421386206814
1709,85.04812225436143
1710,88.31154451114577
1711,91.75520874531904
1712,95.3228010452377
1713,98.93704831327034
1714,102.4964097533862
1715,105.87334226313254
1716,108.91541983898871
1717,111.45071195321958
1718,113.29852945977625
1719,114.28571428571428
1720,114.78312949752842
1721,115.26458239591358
1722,115.72901329866961
1723,116.17535378524443
1724,116.60252942878567
1725,117.00946272316352
1726,117.39507619926596
1727,117.75829572276356
1728,118.09805396333263
1729,118.4132940230501
1730,118.70297320934057
1731,118.96606693551168
1732,119.2015727295779
1733,119.40851432978752
1734,119.58594584306967
1735,119.73295594054872
1736,119.84867206236997
1737,119.93226460239117
1738,119.98295104185371
1739,120.0
1740,119.8301098764206
1741,119.32911445454927
1742,118.51385673507002
1743,117.40563221386184
1744,116.02927513080895
1745,114.41218591329255
1746,112.58336068198983
1747,110.5724750918812
1748,108.40906287265102
1749,106.1218161353082
1750,103.73802152063931
1751,101.2831348444103
1752,98.78048780487805
1753,96.25111384850038
1754,93.71367635297254
1755,91.1844805455994
1756,88.67755056277758
1757,86.20475427525096
1758,83.77596049338545
1759,81.3992155427735
1760,79.08092866998619
1761,76.82605809755597
1762,74.63829167031473
1763,72.5202178577323
1764,70.47348437971814
1765,68.49894291754757
1766,66.59677928639091
1767,64.76662911963432
1768,63.00767958872244
1769,61.31875799511572
1770,59.698408258821594
1771,58.14495642158744
1772,56.65656630778158
1773,55.23128646281501
1774,53.867089433785935
1775,52.5619043821524
1776,51.31364393278595
1777,50.12022607430711
1778,48.9795918367347
1779,47.88971938724023
1780,46.84863510508279
1781,45.85442212366293
1782,44.90522676152875
1783,43.999263205131854
1784,43.1348167539267
1785,42.31024589262607
1786,41.52398341556037
1787,40.7745367935909
1788,40.060487944338476
1789,39.380492541070446
1790,38.73327897392952
1791,38.11764705882352
1792,37.532466573797066
1793,36.976675689701125
1794,36.449279351127984
1795,35.94934765459682
1796,35.476014263607624
1797,35.02847489421256
1798,34.605985900001
1799,34.20786298170494
1800,33.83348004388008
1801,33.48226821920192
1802,33.15371507975931
1803,32.847364054270315
1804,32.562814070351756
1805,32.299719441824
1806,32.05779002252919
1807,31.836791650304622
1808,31.636546907624737
1809,31.45693622907244
1810,31.297899390312942
1811,31.15943741874483
1812,31.041614972651058
1813,30.94456324366951
1814,30.868483447004067
1815,30.81365097532321
1816,30.780420306148926
1817,30.76923076923077
1818,30.77963430357512
1819,30.810355796623686
1820,30.860717425602964
1821,30.93010858893252
1822,31.017977597733747
1823,31.123824118000304
1824,31.247192228692445
1825,31.387663979234702
1826,31.544853344888146
1827,31.71840049086961
1828,31.90796626641892
1829,32.113226858699925
1830,32.33386854382176
1831,32.56958247869333
1832,32.820059483147496
1833,33.08498476703687
1834,33.36403256203661
1835,33.656860622906365
1836,33.96310456817106
1837,34.28237203578521
1838,34.61423663555303
1839,34.9582316870931
1840,35.31384374016911
1841,35.680505883459624
1842,36.057590858509315
1843,36.4444040078718
1844,36.84017610048108
1845,37.24405609319374
1846,37.65510390529716
1847,38.072283302571165
1848,38.494455009119285
1849,38.92037018842086
1850,39.348664459514865
1851,39.7778526393414
1852,40.20632442725887
1853,40.632341271601206
1854,41.05403467956509
1855,41.46940624918032
1856,41.87632971382783
1857,42.27255529372347
1858,42.65571664282412
1859,43.023340661531876
1860,43.37286041324931
1861,43.70163133441927
1862,44.006950861781974
1863,44.28608151652941
1864,44.536277383116904
1865,44.754813802184124
1866,44.93901996520888
1867,45.08631395754095
1868,45.19423965223291
1869,45.260504716884334
1870,45.28301886792453
1871,45.28301886792453
1872,45.28301886792453
1873,45.28301886792453
1874,45.28301886792453
1875,45.28301886792453
1876,45.28301886792453
1877,45.28301886792453
1878,45.28301886792453
1879,45.28301886792453
1880,45.28301886792453
1881,45.28301886792453
1882,45.28301886792453
1883,45.28301886792453
1884,45.28301886792453
1885,45.28301886792453
1886,45.28301886792453
1887,45.28301886792453
1888,45.28301886792453
1889,45.28301886792453
1890,45.28301886792453
1891,45.28301886792453
1892,45.28301886792453
1893,45.28301886792453
1894,45.28301886792453
1895,45.28301886792453
1896,45.28301886792453
1897,45.28301886792453
1898,45.28301886792453
1899,45.28301886792453
1900,45.28301886792453
1901,45.28301886792453
1902,45.28301886792453
1903,45.28301886792453
1904,45.28301886792453
1905,45.28301886792453
1906,45.28301886792453
1907,45.28301886792453
1908,45.28301886792453
1909,45.28301886792453
1910,45.28301886792453
1911,45.28301886792453
1912,45.28301886792453
1913,45.28301886792453
1914,45.28301886792453
1915,45.28301886792453
1916,45.28301886792453
1917,45.28301886792453
1918,45.28301886792453
1919,45.28301886792453
1920,45.28301886792453
1921,45.28301886792453
1922,45.28301886792453
1923,45.28301886792453
1924,45.28468299889727
1925,45.28965606416426
1926,45.29791014093973
1927,45.30941869846298
1928,45.32415655839968
1929,45.3420998569921
1930,45.36322600887393
1931,45.38751367246923
1932,45.41494271689939
1933,45.445494190326
1934,45.479150289661256
1935,45.5158943315809
1936,45.55571072477813
1937,45.598584943399594
1938,45.644503501608156
1939,45.693453929218926
1940,45.74542474835841
1941,45.80040545109829
1942,45.85838647801826
1943,45.91935919765368
1944,45.98331588678647
1945,46.05024971153898
1946,46.12015470923261
1947,46.19302577097422
1948,46.268858624935426
1949,46.347649820290556
1950,46.429396711780925
1951,46.51409744487411
1952,46.60175094148801
1953,46.692356886250465
1954,46.78591571326653
1955,46.88242859336587
1956,46.981897421804135
1957,47.08432480639263
1958,47.189714056031235
1959,47.298069169620526
1960,47.40939482532936
1961,47.523696370194685
1962,47.640979810031304
1963,47.76125179962885
1964,47.88451963321466
1965,48.010791235160816
1966,48.14007515091418
1967,48.272380538128516
1968,48.407717157977906
1969,48.546095366630944
1970,48.687526106865036
1971,48.83202089980063
1972,48.97959183673469
1973,49.169007533805086
1974,49.436771186169615
1975,49.77990561865066
1976,50.19588750513429
1977,50.6825433829883
1978,51.23795351122074
1979,51.86036009725172
1980,52.54807694000426
1981,53.29939794282943
1982,54.112502288434754
1983,54.98535438356623
1984,55.91559701574777
1985,56.90043656049875
1986,57.936519579817734
1987,59.019800808450285
1988,60.14540338188596
1989,61.307473265423575
1990,62.49903123519576
1991,63.711827460436346
1992,64.93620573133003
1993,66.1609866102155
1994,67.37338112919056
1995,68.55894889917965
1996,69.7016163149119
1997,70.78377151000926
1998,71.78645232045278
1999,72.68964119930503
2000,73.47267629118127
2001,74.11478040938638
2002,74.5956994978892
2003,74.8964298455428
2004,75.0
2005,74.99188905518365
2006,74.96784556494204
2007,74.92831795627697
2008,74.87377239318717
2009,74.80469093196602
2010,74.72156968823353
2011,74.6249170261627
2012,74.5152517796058
2013,74.39310151402417
2014,74.25900083728719
2015,74.11348976654737
2016,73.95711215752968
2017,73.79041420170527
2018,73.61394299596546
2019,73.42824518857608
2020,73.2338657043883
2021,73.03134655151207
2022,72.82122571093134
2023,72.604036109859
2024,72.38030467899891
2025,72.15055149330381
2026,71.91528899529311
2027,71.67502129952548
2028,71.43024357640574
2029,71.18144151314404
2030,70.92909084937686
2031,70.6736569847006
2032,70.4155946551581
2033,70.15534767555401
2034,69.89334874435221
2035,69.63001930782573
2036,69.36576948008339
2037,69.10099801558306
2038,68.83609233075848
2039,68.57142857142857
2040,68.27536787614022
2041,67.91811433371265
2042,67.50298625000195
2043,67.03351084806991
2044,66.51337548595205
2045,65.94638007528134
2046,65.33639158984575
2047,64.68730140344732
2048,64.00298603892196
2049,63.287271752635164
2050,62.543903227777236
2051,61.7765165105671
2052,60.98861619981664
2053,60.18355679459848
2054,59.3645280181129
2055,58.53454386830044
2056,57.69643509645575
2057,56.85284478258385
2058,56.006226658581184
2059,55.15884582536296
2060,54.31278151554799
2061,53.46993156705503
2062,52.632018292900085
2063,51.800595456753335
2064,50.977056090798996
2065,50.16264092077913
2066,49.35844719168018
2067,48.56543771546954
2068,47.784449988954655
2069,47.01620525475404
2070,46.26131740124123
2071,45.52030161797828
2072,44.793582741539325
2073,44.08150324275809
2074,43.384330820401374
2075,42.70226557820321
2076,42.035446772245535
2077,41.38395912401484
2078,40.74783870127853
2079,40.12707837438677
2080,39.52163285988782
2081,38.931423366608996
2082,38.3563418617501
2083,37.796254976199286
2084,37.25100756933338
2085,36.72042597411574
2086,36.20432094344791
2087,35.70249031855101
2088,35.214721439717884
2089,34.74079331914921
2090,34.28047859481512
2091,33.833545283412796
2092,33.3997583495524
2093,32.97888110732881
2094,32.57067646944753
2095,32.174908058087034
2096,31.791341190712973
2097,31.4197437531202
2098,31.05988697107757
2099,30.71154609109137
2100,30.374500979991144
2101,30.04853665227904
2102,29.733443733470974
2103,29.42901886699652
2104,29.13506507161272
2105,28.85139205572477
2106,28.577816494492435
2107,28.314162275133064
2108,28.060260715408415
2109,27.81595075990225
2110,27.581079158355465
2111,27.355500630024807
2112,27.139078017767858
2113,26.93168243532947
2114,26.733193411111227
2115,26.543499031546094
2116,26.362496087072437
2117,26.19009022360545
2118,26.026196102339476
2119,25.870737570680053
2120,25.72364784710264
2121,25.584869722762882
2122,25.45435578274561
2123,25.33206864993461
2124,25.217981254616756
2125,25.112077133103202
2126,25.014350758860417
2127,24.924807909899023
2128,24.843466076471987
2129,24.770354913491424
2130,24.705516742492154
2131,24.64900710845598
2132,24.60089539737377
2133,24.561265521072322
2134,24.530216676582388
2135,24.507864188187813
2136,24.49434044128985
2137,24.489795918367346
2138,24.497171234765723
2139,24.518997197092794
2140,24.554859711184893
2141,24.604388565444975
2142,24.66725287993228
2143,24.74315697695069
2144,24.831836605236607
2145,24.933055458448248
2146,25.046601935765995
2147,25.172286098291583
2148,25.309936779796402
2149,25.459398814393765
2150,25.6205303470438
2151,25.79320019556746
2152,25.977285235154884
2153,26.172667778297406
2154,26.37923292473575
2155,26.59686585747749
2156,26.825449062269158
2157,27.064859449184002
2158,27.314965356279288
2159,27.575623416660733
2160,27.846675271846017
2161,28.12794411612567
2162,28.41923105876809
2163,28.720311293499652
2164,29.030930067812186
2165,29.350798448415365
2166,29.67958888367128
2167,30.01693056923763
2168,30.362404629517275
2169,30.71553913497395
2170,31.07580398402565
2171,31.44260568814797
2172,31.815282110062405
2173,32.19309721746331
2174,32.57523592861336
2175,32.960799141204916
2176,33.348799051952874
2177,33.73815489115995
2178,34.127689213563436
2179,34.51612490358056
2180,34.90208306891361
2181,35.28408201049051
2182,35.6605374678755
2183,36.02976434641047
2184,36.389980134137154
2185,36.73931021161806
2186,37.07579524471291
2187,37.39740082783686
2188,37.70202951205905
2189,37.987535307725494
2190,38.25174069468532
2191,38.49245610482243
2192,38.70750176234063
2193,38.89473167885513
2194,39.052059505466914
2195,39.17748584623621
2196,39.269126541296245
2197,39.325241338446425
2198,39.34426229508197
2199,39.339489772451465
2200,39.32535021603309
2201,39.30212011356741
2202,39.27008756124146
2203,39.22955099115156
2204,39.18081790740998
2205,39.1242036389103
2206,39.06003011615122
2207,38.988624678863694
2208,38.91031892050286
2209,38.825447574966375
2210,38.73434745019538
2211,38.63735641261247
2212,38.53481242566349
2213,38.427052645062126
2214,38.31441257269758
2215,38.19722527055991
2216,38.075820635470215
2217,37.95052473487763
2218,37.82165920350387
2219,37.68954070018121
2220,37.55448042384154
2221,37.4167836872727
2222,37.27674954696324
2223,37.13467048710602
2224,36.990832155624396
2225,36.84551314991801
2226,36.69898484989789
2227,36.551511295788806
2228,36.40334910811795
2229,36.254747447280856
2230,36.105948010073725
2231,35.957185060604644
2232,35.80868549304033
2233,35.66066892370818
2234,35.513347810152275
2235,35.366927594834806
2236,35.22160687127805
2237,35.07757757055504
2238,34.93502516615702
2239,34.79412889539174
2240,34.655061995595574
2241,34.51799195357482
2242,34.38308076682454
2243,34.25048521520721
2244,34.12035714190635
2245,33.99284374260236
2246,33.868087861948254
2247,33.746228296550726
2248,33.627400103788275
2249,33.51173491592129
2250,33.39936125906983
2251,33.29040487675333
2252,33.184989057802945
2253,33.08323496857093
2254,32.98526198947488
2255,32.89118805602554
2256,32.80113000459799
2257,32.71520392331711
2258,32.63352550853911
2259,32.556210427524306
2260,32.483374688011224
2261,32.41513501552036
2262,32.351609239338416
2263,32.29291668826173
2264,32.239178597312026
2265,32.19051852678002
2266,32.147062795104084
2267,32.10894092725484
2268,32.0762861204722
2269,32.04923572939328
2270,32.02793177281862
2271,32.01252146459325
2272,32.00315777133233
2273,32.0
2274,32.15248213100027
2275,32.598107155585474
2276,33.3292845864205
2277,34.35009388691842
2278,35.67497291440953
2279,37.32825465923003
2280,39.34426229508197
2281,41.767720330813326
2282,44.654190398698134
2283,48.07007299270073
2284,52.091375055369234
2285,56.79983440281515
2286,62.27399954610787
2287,68.57142857142858
2288,75.69655172413792
2289,83.54815792144525
2290,91.84424857748525
2291,100.03645643456068
2292,107.25732899022802
2293,112.38225255972695
2294,114.28571428571428
2295,114.13426202066456
2296,113.68747873833902
2297,112.95992801825251
2298,111.96991182598313
2299,110.7387295727517
2300,109.28988931724909
2301,107.6483177965477
2302,105.83960978568992
2303,103.88934862276864
2304,101.82251994386965
2305,99.6630309572588
2306,97.43333887687788
2307,95.15418502202641
2308,92.84442583629085
2309,90.52094867767106
2310,88.19865848649474
2311,85.89052104222925
2312,83.60764912948339
2313,81.35941921397755
2314,79.15360789147554
2315,76.9965391860516
2316,74.8932355698364
2317,72.84756724229639
2318,70.86239567794219
2319,68.93970869809024
2320,67.0807453416149
2321,65.28610961499173
2322,63.55587281646887
2323,61.88966458042883
2324,60.28675310420527
2325,58.7461152275652
2326,57.26649715871037
2327,55.84646670055923
2328,54.48445784432816
2329,53.17880857782727
2330,51.92779271427305
2331,50.729646492127344
2332,49.58259063373086
2333,48.484848484848484
2334,47.434660791877114
2335,46.43029761054483
2336,45.47006778082476
2337,44.552326348287785
2338,43.67548026259478
2339,42.837992639352656
2340,42.03838583200309
2341,41.27524352551979
2342,40.54721203312801
2343,39.853000950656565
2344,39.1913833001062
2345,38.561195274191256
2346,37.96133567662566
2347,37.390765138448856
2348,36.84850517841419
2349,36.33363716512308
2350,35.84530122993696
2351,35.38269517252486
2352,34.94507339502237
2353,34.531745896029726
2354,34.14207735192992
2355,33.77548631014955
2356,33.43144451692806
2357,33.10947640083264
2358,32.80915873260597
2359,32.53012048192771
2360,32.272042892291886
2361,32.034659796452004
2362,31.817758196784517
2363,31.621179137506076
2364,31.44481889901522
2365,31.288630548796508
2366,31.152625888441836
2367,31.036877842555295
2368,30.94152334280494
2369,30.86676676940368
2370,30.81288402314381
2371,30.780227314150274
2372,30.76923076923077
2373,30.770514109358757
2374,30.77434557508999
2375,30.780698262985002
2376,30.78954647182919
2377,30.80086565943891
2378,30.814632401283518
2379,30.83082435081955
2380,30.84942020143895
2381,30.870399649938644
2382,30.893743361423645
2383,30.919432935560437
2384,30.9474508741018
2385,30.977780549608095
2386,31.010406175293785
2387,31.045312775931528
2388,31.082486159749237
2389,31.121912891258606
2390,31.163580264956444
2391,31.207476279842602
2392,31.25358961470088
2393,31.30190960409134
2394,31.352426215004847
2395,31.405130024132195
2396,31.460012195702408
2397,31.517064459846125
2398,31.576279091441734
2399,31.637648889403284
2400,31.701167156370527
2401,31.766827678762652
2402,31.83462470715846
2403,31.9045529369667
2404,31.976607489351206
2405,32.050783892376536
2406,32.12707806234031
2407,32.20548628525943
2408,32.286005198477945
2409,32.36863177236473
2410,32.453363292070144
2411,32.5401973393107
2412,32.62913177415178
2413,32.72016471675838
2414,32.813294529084565
2415,32.9085197964722
2416,33.00583930913024
2417,33.1052520434657
2418,33.20675714323776
2419,33.310353900506676
2420,33.416041736349214
2421,33.523820181312345
2422,33.63368885557731
2423,33.745647448805876
2424,33.85969569964081
2425,33.97583337483284
2426,34.094060247965864
2427,34.214376077752874
2428,34.336780585874436
2429,34.461273434332014
2430,34.58785420228834
2431,34.71652236236688
2432,34.847277256382796
2433,34.980118070477616
2434,35.11504380963
2435,35.25205327151509
2436,35.39114501968503
2437,35.53231735604357
2438,35.675568292587435
2439,35.82089552238806
2440,35.98302035602008
2441,36.17620052824678
2442,36.399816429087814
2443,36.65334048426129
2444,36.936322507458875
2445,37.24837578241936
2446,37.58916358356733
2447,37.95838587062622
2448,38.35576591323044
2449,38.78103661772071
2450,39.23392634142312
2451,39.71414399111979
2452,40.2213632134505
2453,40.75520549702836
2454,41.31522202060496
2455,41.90087410033683
2456,42.51151211392619
2457,43.14635281218777
2458,43.80445497169421
2459,44.48469339802352
2460,45.18573136034312
2461,45.90599162719351
2462,46.643626382785065
2463,47.39648643486985
2464,48.16209028049033
2465,48.937593774593864
2466,49.7197613467931
2467,50.504939929150545
2468,51.28903698530412
2469,52.06750425718442
2470,52.835329054173364
2471,53.58703508014015
2472,54.316694900912445
2473,55.017956168888844
2474,55.68408361068806
2475,56.308018516141736
2476,56.882457014701366
2477,57.39994776937581
2478,57.85300885396185
2479,58.23426252199131
2480,58.53658536585366
2481,58.79670905549703
2482,59.05574290848489
2483,59.313410841650146
2484,59.569428619419085
2485,59.82350391215015
2486,60.07533638535754
2487,60.324617821680796
2488,60.57103227743997
2489,60.81425627557763
2490,61.05395903673312
2491,61.28980275011994
2492,61.521442885781696
2493,61.74852854968555
2494,61.97070288297339
2495,62.187603506527644
2496,62.398863011822364
2497,62.60410949881836
2498,62.802967161424235
2499,62.995056920783775
2500,63.179997106363274
2501,63.357404184501895
2502,63.526893533754354
2503,63.68808026599994
2504,63.840580091917005
2505,63.98401022902919
2506,64.1179903501232
2507,64.24214356941887
2508,64.35609746344667
2509,64.45948512315738
2510,64.55194623336077
2511,64.63312817516649
2512,64.70268714668919
2513,64.7602892968843
2514,64.80561186700898
2515,64.83834433385734
2516,64.85818954860973
2517,64.86486486486486
2518,64.86320707609578
2519,64.85828218352836
2520,64.85016360537607
2521,64.83892564525313
2522,64.82464342045499
2523,64.80739279137129
2524,64.78725029213076
2525,64.76429306257108
2526,64.73859878162094
2527,64.7102456021749
2528,64.67931208753632
2529,64.64587714949677
2530,64.6100199881146
2531,64.57182003324975
2532,64.53135688790557
2533,64.488710273423
2534,64.443959976567
2535,64.39718579853925
2536,64.34846750594672
2537,64.29788478374942
2538,64.2455171902074
2539,64.19144411384048
2540,64.13574473241154
2541,64.07849797393841
2542,64.01978247973642
2543,63.95967656948902
2544,63.89825820834093
2545,63.83560497600421
2546,63.7717940378651
2547,63.70690211807571
2548,63.64100547461291
2549,63.57417987628304
2550,63.50650058164999
2551,63.43804231986089
2552,63.36887927334275
2553,63.29908506234098
2554,63.22873273126967
2555,63.15789473684211
2556,63.063910451896874
2557,62.92477198850635
2558,62.74166580420131
2559,62.51594691454012
2560,62.24912295882678
2561,61.94283725368824
2562,61.59885114909857
2563,61.219025996095134
2564,60.80530502246601
2565,60.35969539314746
2566,59.8842507071579
2567,59.381054153898745
2568,58.85220251987645
2569,58.299791203603064
2570,57.72590036278355
2571,57.13258228492781
2572,56.521850041114405
2573,55.8956674534826
2574,55.25594038067035
2575,54.60450930220531
2576,53.94314316299387
2577,53.27353442260078
2578,52.59729524090901
2579,51.91595472184052
2580,51.23095712987445
2581,50.54366098983724
2582,49.85533897854451
2583,49.167178517017256
2584,48.48028297384252
2585,47.795673393480584
2586,47.114290667634265
2587,46.43699807291329
2588,45.764584103701615
2589,45.097765535149506
2590,44.4371906573813
2591,43.783442628178896
2592,43.1370428974463
2593,42.498454662582084
2594,41.86808631941173
2595,41.24629487850671
2596,40.63338932150735
2597,40.02963387645248
2598,39.43525119509427
2599,38.850425418744265
2600,38.275305122368835
2601,37.710006129444764
2602,37.15461419252275
2603,36.60918753654945
2604,36.073759263796696
2605,35.54833962076439
2606,35.03291812868924
2607,34.52746558033123
2608,34.03193590654802
2609,33.54626791682936
2610,33.07038691847019
2611,32.604206219433536
2612,32.14762852021175
2613,31.7005472001533
2614,31.262847503797975
2615,30.83440763277024
2616,30.415099748729503
2617,30.004790892779134
2618,29.603343826601595
2619,29.210617800423602
2620,28.82646925273011
2621,28.450752446443467
2622,28.08332004607239
2623,27.724023640114886
2624,27.372714212777186
2625,27.029242568847213
2626,26.693459715340357
2627,26.36521720331817
2628,26.044367433069265
2629,25.73076392563687
2630,25.42426156348052
2631,25.124716802870278
2632,24.83198786043195
2633,24.54593487609018
2634,24.266420054494247
2635,23.993307786858175
2636,23.726464755002176
2637,23.465760019247213
2638,23.211065091687026
2639,22.96225399624329
2640,22.719203316798446
2641,22.481792234597304
2642,22.249902556012277
2643,22.02341873167766
2644,21.802227867915267
2645,21.586219731297142
2646,21.375286747119553
2647,21.169323992497215
2648,20.968229184725455
2649,20.771902665502697
2650,20.580247381553573
2651,20.39316886214597
2652,20.210575193951655
2653,20.032376993659977
2654,19.85848737871776
2655,19.688821936534755
2656,19.52329869246338
2657,19.3618380768334
2658,19.20436289129652
2659,19.050798274712804
2660,18.901071668789264
2661,18.755112783661918
2662,18.61285356359519
2663,18.474228152956485
2664,18.33917286260981
2665,18.207626136859364
2666,18.079528521062407
2667,17.95482263002072
2668,17.83345311725055
2669,17.715366645223234
2670,17.600511856661125
2671,17.488839346967723
2672,17.38030163786545
2673,17.274853152309944
2674,17.172450190746055
2675,17.07305090876787
2676,16.97661529624235
2677,16.883105157954994
2678,16.79248409583432
2679,16.704717492811906
2680,16.619772498374548
2681,16.53761801586583
2682,16.45822469159562
2683,16.381564905817736
2684,16.30761276563829
2685,16.236344099920043
2686,16.167736456251685
2687,16.10176910005449
2688,16.038423015903955
2689,15.977680911148536
2690,15.919527221913839
2691,15.863948121586935
2692,15.810931531882426
2693,15.760467136600075
2694,15.712546398192295
2695,15.66716257726928
2696,15.624310755180232
2697,15.583987859820242
2698,15.54619269482516
2699,15.510925972330243
2700,15.478190349483297
2701,15.447990468919544
2702,15.420333003422842
2703,15.395226705017684
2704,15.372682458757525
2705,15.352713341498179
2706,15.335334685970627
2707,15.320564150495334
2708,15.308421794710837
2709,15.298930161722769
2710,15.29211436711645
2711,15.288002195316523
2712,15.286624203821656
2713,15.352480127789258
2714,15.545742838507502
2715,15.86408117947791
2716,16.31009312861817
2717,16.890996824181432
2718,17.618719889883
2719,18.51033987174609
2720,19.588875453446192
2721,20.884462422244127
2722,22.43597372948292
2723,24.293155688070307
2724,26.519337016574582
2725,29.194685795643533
2726,32.41975578868372
2727,36.31849618726724
2728,41.038632045598476
2729,46.744683429093115
2730,53.59385903698534
2731,61.676884924692246
2732,70.89715536105027
2733,80.7677139476797
2734,90.16828281949823
2735,97.27048310396795
2736,100.0
2737,100.0
2738,100.0
2739,100.0
2740,100.0
2741,100.0
2742,100.0
2743,100.0
2744,100.0
2745,100.0
2746,100.0
2747,100.0
2748,100.0
2749,100.0
2750,100.0
2751,100.0
2752,100.0
2753,100.0
2754,100.0
2755,100.0
2756,100.0
2757,100.0
2758,100.0
2759,100.0
2760,100.0
2761,99.88624207382851
2762,99.55067671456179
2763,99.00392785372237
2764,98.25903046907165
2765,97.3309691086714
2766,96.23619139032955
2767,94.99212147227692
2768,93.61669529057207
2769,92.12793500646379
2770,90.54357519773053
2771,88.88074840107798
2772,87.15573309555121
2773,85.38376339927393
2774,83.57889678528933
2775,81.75393403912197
2776,79.9203844228487
2777,78.08846846149103
2778,76.26715078180216
2779,74.46419585971323
2780,72.68624023029383
2781,70.938875563104
2782,69.22673791113444
2783,67.55359933306038
2784,65.92245891888503
2785,64.33563098981377
2786,62.79482888080776
2787,61.30124324597959
2788,59.855614257425344
2789,58.45829740636452
2790,57.10932287304594
2791,55.80844862102191
2792,54.55520750407509
2793,53.348948761362514
2794,52.188874328019345
2795,51.07407041294502
2796,50.00353479978252
2797,48.97620031691504
2798,47.99095490219341
2799,47.046658661626395
2800,46.14215829113046
2801,45.276299198664894
2802,44.447935632147136
2803,43.65593908747644
2804,42.899205241487714
2805,42.17665962714047
2806,41.48726224296218
2807,40.83001126580929
2808,40.20394601538432
2809,39.60814930058569
2810,39.041749261559424
2811,38.50392080713162
2812,37.99388673498322
2813,37.51091861133223
2814,37.05433747787195
2815,36.62351444614082
2816,36.217871233249966
2817,35.83688068786301
2818,35.48006735141926
2819,35.14700809674732
2820,34.83733288437824
2821,34.550725676006884
2822,34.28692554465574
2823,34.045728022183894
2824,33.82698672689365
2825,33.63061531718973
2826,33.456589821642886
2827,33.30495140154531
2828,33.17580960930724
2829,33.069346215080124
2830,32.985819685116475
2831,32.92557040899241
2832,32.889026789435725
2833,32.87671232876713
2834,32.939951688070856
2835,33.1253118277811
2836,33.42804613070366
2837,33.84547243683223
2838,34.37665782493369
2839,35.02218071445249
2840,35.7839444951261
2841,36.665022021645946
2842,37.66951280763436
2843,38.80239520958084
2844,40.0693546113149
2845,41.476565740356705
2846,43.03040283894411
2847,44.73704558760177
2848,46.60194174757282
2849,48.629080189953605
2850,50.820021833787166
2851,53.1726338177951
2852,55.679478675103375
2853,58.32583258325834
2854,61.08735491753208
2855,63.927517244645095
2856,66.79503407783685
2857,69.62172197725691
2858,72.32142857142858
2859,74.79086258794851
2860,76.91321625432641
2861,78.56526251467037
2862,79.62800939807124
2863,80.0
2864,79.93806881387466
2865,79.75491977776623
2866,79.45529669647533
2867,79.04487443392343
2868,78.53011663204985
2869,77.9181250951149
2870,77.21648642364755
2871,76.43312101910827
2872,75.57613890067715
2873,74.65370595382745
2874,73.67392334026823
2875,72.64472190692395
2876,71.57377259251062
2877,70.4684130843694
2878,69.33559035124841
2879,68.18181818181819
2880,67.01314849454918
2881,65.83515494406582
2882,64.65292721810366
2883,63.47107438016529
2884,62.29373564704272
2885,61.12459707907198
2886,59.96691278737806
2887,58.8235294117647
2888,57.69691278319051
2889,56.5891758464429
2890,55.5021070746216
2891,54.43719875248086
2892,53.39567463748907
2893,52.37851662404092
2894,51.386490137122635
2895,50.42016806722688
2896,49.47995312934127
2897,48.56609858665064
2898,47.678727325637794
2899,46.817849305047545
2900,45.98337742817904
2901,45.175141907590955
2902,44.39290320482946
2903,43.63636363636363
2904,42.90517774154239
2905,42.19896150993159
2906,41.51730056457853
2907,40.859757395190464
2908,40.22587773140191
2909,39.61519614164496
2910,39.02724093794961
2911,38.46153846153846
2912,37.917616818536665
2913,37.395009129640904
2914,36.89325635228736
2915,36.41190972880712
2916,35.9505329093074
2917,35.508703793605655
2918,35.08601613248626
2919,34.682080924855484
2920,34.29652764403955
2921,33.92900532349627
2922,33.579183529585364
2923,33.24675324675324
2924,32.931427698525205
2925,32.632943126048986
2926,32.351059544589326
2927,32.085561497326196
2928,31.836258825053427
2929,31.60298746990926
2930,31.385610331096725
2931,31.18401819067727
2932,30.998130727956585
2933,30.827897641746105
2934,30.673299900900872
2935,30.53435114503816
2936,30.411099259273918
2937,30.30362814922958
2938,30.212059745528304
2939,30.136556270601158
2940,30.077322804964904
2941,30.034610195342285
2942,30.008718353232503
2943,30.0
2944,30.037534041379725
2945,30.147844367095153
2946,30.32820452816943
2947,30.576721426074798
2948,30.892216692232143
2949,31.274131274131275
2950,31.722446722435393
2951,32.2376179245283
2952,32.82051282051282
2953,33.47235507939545
2954,34.19466587838085
2955,34.98920086393088
2956,35.857878111702334
2957,36.80269246949937
2958,37.825611090842756
2959,38.928444286222856
2960,40.112685097883
2961,41.379310344827594
2962,42.72853544989697
2963,44.15951539626451
2964,45.669985023345966
2965,47.25583405358686
2966,48.91061637971702
2967,50.625
2968,52.38617437356139
2969,54.17724654734626
2970,55.97667638483966
2971,57.75782384788063
2972,59.488705187326005
2973,61.132075471698116
2974,62.64596490128765
2975,63.984786424809826
2976,65.10109255305787
2977,65.94798341500189
2978,66.48205761512337
2979,66.66666666666667
2980,66.65528128078657
2981,66.62121623420953
2982,66.56464253662071
2983,66.48577612595055
2984,66.38487661032336
2985,66.26224580508716
2986,66.11822607914864
2987,65.95319852632818
2988,65.76758097871023
2989,65.56182587998269
2990,65.33641803752792
2991,65.09187227254553
2992,64.82873098775582
2993,64.54756167225881
2994,64.24895436291942
2995,63.93351908122749
2996,63.60188326396024
2997,63.25468920517479
2998,62.89259152609977
2999,62.516254688403166
3000,62.126350565110336
3001,61.7235560821568
3002,61.308550942208505
3003,60.882015440990386
3004,60.44462838495474
3005,59.99706511771406
3006,59.53999566127722
3007,59.07408297677996
3008,58.599981348105565
3009,58.118334890560504
3010,57.62977618561476
3011,57.13492504164353
3012,56.63438737962458
3013,56.12875424185418
3014,55.61860092095111
3015,55.10448620571853
3016,54.58695173983061
3017,54.06652148879957
3018,53.543701310258065
3019,53.01897862225607
3020,52.4928221640163
3021,51.96568184341151
3022,51.43798866531691
3023,50.910154734941386
3024,50.38257333025082
3025,49.85561903765473
3026,49.32964794523083
3027,48.80499788790325
3028,48.28198873916324
3029,47.76092274412235
3030,47.24208488890939
3031,46.725743301662774
3032,46.21214968062104
3033,45.70153974507562
3034,45.19413370521577
3035,44.69013674716322
3036,44.18973952976199
3037,43.69311868995201
3038,43.20043735381499
3039,42.71184565063203
3040,42.22748122753645
3041,41.74746976257931
3042,41.27192547424834
3043,40.800951625693884
3044,40.33464102211604
3045,39.87307649995638
3046,39.41633140671513
3047,38.96447007037908
3048,38.5175482575997
3049,38.07561361990232
3050,37.63870612733767
3051,37.20685848910697
3052,36.7800965608006
3053,36.35843973798973
3054,35.9419013359996
3055,35.53048895577412
3056,35.12420483581308
3057,34.72304619022785
3058,34.327005533017804
3059,33.936070988719926
3060,33.55022658962689
3061,33.16945255980711
3062,32.793725586191655
3063,32.4230190770205
3064,32.05730340796285
3065,31.69654615624477
3066,31.340712323132138
3067,30.989764545127823
3068,30.643663294250864
3069,30.302367067770316
3070,29.965832567769976
3071,29.634014870920904
3072,29.30686758883795
3073,28.984343019393744
3074,28.66639228935954
3075,28.352965488737343
3076,28.044011797140968
3077,27.73947960257687
3078,27.439316612967286
3079,27.14346996074975
3080,26.851886300877965
3081,26.564511902539355
3082,26.2812927348951
3083,26.002174547137972
3084,25.727102943153728
3085,25.456023451061068
3086,25.188881587895313
3087,24.925622919690493
3088,24.66619311720463
3089,24.41053800752296
3090,24.15860362176393
3091,23.91033623910336
3092,23.66568242732247
3093,23.424589080076537
3094,23.18700345107186
3095,22.952873185329906
3096,22.72214634770932
3097,22.494771448848066
3098,22.270697468680275
3099,22.04987387767453
3100,21.83225065593327
3101,21.61777831028568
3102,21.40640788949977
3103,21.19809099773287
3104,20.992779806333377
3105,20.790427064100854
3106,20.590986106105582
3107,20.394410861163415
3108,20.200655858056486
3109,20.00967623058531
3110,19.821427721533116
3111,19.635866685618694
3112,19.45295009150974
3113,19.27263552296459
3114,19.094881179166283
3115,18.919645874309296
3116,18.74688903649562
3117,18.57657070599363
3118,18.40865153291001
3119,18.243092774321898
3120,18.079856290913717
3121,17.918904543160288
3122,17.760200587095436
3123,17.603708069702726
3124,17.4493912239628
3125,17.297214863589517
3126,17.147144377485215
3127,16.999145723943197
3128,16.853185424624066
3129,16.709230558330535
3130,16.567248754603828
3131,16.42720818716331
3132,16.289077567209343
3133,16.152826136608244
3134,16.01842366097674
3135,15.885840422682254
3136,15.755047213774029
3137,15.626015328859276
3138,15.498716557937305
3139,15.373123179203704
3140,15.24920795183587
3141,15.126944108770129
3142,15.006305349480117
3143,14.887265832765157
3144,14.769800169556861
3145,14.65388341575138
3146,14.539491065074179
3147,14.426599041983653
3148,14.315183694619348
3149,14.205221787799989
3150,14.096690496076214
3151,13.98956739684223
3152,13.88383046351038
3153,13.779458058752219
3154,13.676428927809166
3155,13.574722191875694
3156,13.474317341557535
3157,13.375194230407118
3158,13.277333068538296
3159,13.180714416321955
3160,13.085319178164118
3161,12.991128596367652
3162,12.898124245078758
3163,12.806288024319036
3164,12.715602154103792
3165,12.626049168647198
3166,12.537611910654567
3167,12.450273525702032
3168,12.364017456703722
3169,12.2788274384664
3170,12.194687492331449
3171,12.111581920903953
3172,12.029495302868582
3173,11.94841248789182
3174,11.868318591610121
3175,11.789198990703339
3176,11.711039318052904
3177,11.633825457983987
3178,11.557543541590968
3179,11.48217994214537
3180,11.407721270585503
3181,11.334154371086854
3182,11.261466316712413
3183,11.189644405141955
3184,11.1186761544793
3185,11.048549299136612
3186,10.979251785794718
3187,10.910771769438371
3188,10.843097609465538
3189,10.7762178658695
3190,10.710121295492863
3191,10.644796848352312
3192,10.580233664033058
3193,10.516421068151924
3194,10.453348568887948
3195,10.391005853579452
3196,10.329382785386514
3197,10.268469400017699
3198,10.208255902520039
3199,10.148732664131176
3200,10.08989021919258
3201,10.031719262122808
3202,9.974210644449757
3203,9.917355371900827
3204,9.861144601550041
3205,9.805569639021007
3206,9.75062193574477
3207,9.696293086271545
3208,9.642574825635295
3209,9.589459026770246
3210,9.536937697978297
3211,9.485002980446435
3212,9.433647145813161
3213,9.382862593783031
3214,9.332641849788374
3215,9.282977562697281
3216,9.233862502567028
3217,9.185289558441946
3218,9.137251736195
3219,9.089742156412136
3220,9.042754052318598
3221,8.996280767746407
3222,8.950315755142123
3223,8.904852573614209
3224,8.859884887019096
3225,8.815406462085264
3226,8.771411166574554
3227,8.727892967479962
3228,8.684845929259206
3229,8.64226421210333
3230,8.600142070239675
3231,8.558473850268497
3232,8.517253989532561
3233,8.47647701451908
3234,8.436137539293297
3235,8.396230263963119
3236,8.356749973174143
3237,8.317691534634493
3238,8.279049897668832
3239,8.240820091800988
3240,8.20299722536459
3241,8.165576484141187
3242,8.128553130025235
3243,8.091922499715471
3244,8.055680003432105
3245,8.019821123659304
3246,7.98434141391248
3247,7.949236497529867
3248,7.914502066487886
3249,7.880133880239846
3250,7.846127764577479
3251,7.812479610514863
3252,7.779185373194298
3253,7.7462410708136415
3254,7.71364278357474
3255,7.681386652652475
3256,7.649468879184035
3257,7.617885723278017
3258,7.586633503042922
3259,7.555708593634709
3260,7.52510742632297
3261,7.494826487575412
3262,7.464862318160214
3263,7.435211512265983
3264,7.405870716638879
3265,7.3768366297366255
3266,7.34810600089904
3267,7.319675629534784
3268,7.291542364323976
3269,7.26370310243639
3270,7.23615478876492
3271,7.2088944151739955
3272,7.181919019762695
3273,7.1552256861422086
3274,7.128811542727452
3275,7.102673762042471
3276,7.076809560039441
3277,7.051216195430951
3278,7.025890969035332
3279,7.000831223134802
3280,6.976034340846133
3281,6.951497745503647
3282,6.927218900054283
3283,6.903195306464512
3284,6.879424505138873
3285,6.855904074349916
3286,6.832631629679336
3287,6.809604823470083
3288,6.786821344289263
3289,6.764278916401592
3290,6.741975299253264
3291,6.719908286965981
3292,6.698075707841004
3293,6.676475423873021
3294,6.655105330273668
3295,6.633963355004501
3296,6.613047458319294
3297,6.592355632315465
3298,6.571885900494458
3299,6.551636317330956
3300,6.531604967850759
3301,6.511789967217154
3302,6.492189460325672
3303,6.472801621407026
3304,6.453624653638177
3305,6.434656788761295
3306,6.415896286710553
3307,6.397341435246602
3308,6.378990549598567
3309,6.360841972113513
3310,6.342894071913169
3311,6.325145244557879
3312,6.307593911717609
3313,6.290238520849901
3314,6.273077544884703
3315,6.256109481915934
3316,6.239332854899675
3317,6.222746211358926
3318,6.206348123094793
3319,6.190137185904017
3320,6.174112019302766
3321,6.15827126625658
3322,6.142613592916413
3323,6.1271376883606266
3324,6.111842264342944
3325,6.096726055046179
3326,6.081787816841747
3327,6.067026328054837
3328,6.052440388735187
3329,6.038028820433382
3330,6.023790465982623
3331,6.009724189285871
3332,5.995828875108341
3333,5.982103428875242
3334,5.968546776474737
3335,5.955157864066041
3336,5.9419356578926195
3337,5.9288791441004225
3338,5.915987328561093
3339,5.903259236700136
3340,5.890693913329957
3341,5.878290422487743
3342,5.866047847278158
3343,5.853965289720783
3344,5.842041870602292
3345,5.830276729333267
3346,5.818669023809721
3347,5.8072179302791715
3348,5.79592264321133
3349,5.784782375173334
3350,5.773796356709479
3351,5.762963836225485
3352,5.752284079877198
3353,5.741756371463752
3354,5.731380012325176
3355,5.721154321244388
3356,5.7110786343535915
3357,5.701152305045053
3358,5.691374703886262
3359,5.681745218539411
3360,5.672263253685258
3361,5.662928230951315
3362,5.653739588844382
3363,5.6446967826874035
3364,5.635799284560667
3365,5.627046583247346
3366,5.618438184183359
3367,5.6099736094115995
3368,5.601652397540497
3369,5.59347410370696
3370,5.585438299543675
3371,5.577544573150804
3372,5.5697925290720915
3373,5.562181788275387
3374,5.55471198813761
3375,5.547382782434199
3376,5.540193841333035
3377,5.533144851392897
3378,5.526235515566464
3379,5.519465553207913
3380,5.512834700085116
3381,5.506342708396517
3382,5.49998934679269
3383,5.493774400402654
3384,5.487697670864952
3385,5.481758976363595
3386,5.475958151668875
3387,5.4702950481831145
3388,5.4647695339914355
3389,5.459381493917563
3390,5.454130829584774
3391,5.449017459482023
3392,5.444041319035323
3393,5.439202360684472
3394,5.43450055396518
3395,5.429935885596686
3396,5.425508359574949
3397,5.421217997271498
3398,5.417064837538047
3399,5.413048936816927
3400,5.409170369257504
3401,5.405429226838621
3402,5.401825619497198
3403,5.398359675263124
3404,5.395031540400509
3405,5.391841379555468
3406,5.388789375910528
3407,5.385875731345805
3408,5.383100666607078
3409,5.380464421480923
3410,5.3779672549770225
3411,5.375609445517837
3412,5.373391291135761
3413,5.371313109677969
3414,5.369375239019086
3415,5.367578037281887
3416,5.365921883066184
3417,5.364407175686128
3418,5.3630343354160885
3419,5.361803803745329
3420,5.360716043641706
3421,5.359771539824588
3422,5.358970799047246
3423,5.358314350388939
3424,5.357802745556959
3425,5.357436559198859
3426,5.357216389225169
3427,5.357142857142858
3428,5.370571139699621
3429,5.410136045016973
3430,5.4752726580885565
3431,5.566041729695573
3432,5.683086523609913
3433,5.827623196654919
3434,6.001460828076735
3435,6.207050213252025
3436,6.447563090002281
3437,6.727005954789523
3438,7.050375367207051
3439,7.423864946268547
3440,7.855138484147563
3441,8.353689176063932
3442,8.931312436567383
3443,9.602729818510891
3444,10.386414934198587
3445,11.30568965273157
3446,12.390180175119857
3447,13.677745609739388
3448,15.217008141080296
3449,17.070600632244467
3450,19.31914575260711
3451,22.065649867374017
3452,25.4391147241875
3453,29.594056538644676
3454,34.697978558161225
3455,40.889851400656866
3456,48.179353700588926
3457,56.251320701556644
3458,64.19131585469407
3459,70.33965760217119
3460,72.72727272727273
3461,72.71312294693357
3462,72.6708048293212
3463,72.60056368577406
3464,72.50270805379004
3465,72.3776076508718
3466,72.22569100637801
3467,72.04744279746878
3468,71.84340091775701
3469,71.61415330933274
3470,71.36033459038775
3471,71.08262251173403
3472,70.78173427607788
3473,70.45842275400081
3474,70.11347263022579
3475,69.74769651294902
3476,69.36193103782509
3477,68.95703299665395
3478,68.53387551897684
3479,68.09334433269414
3480,67.63633412752338
3481,67.1637450426695
3482,66.67647929753338
3483,66.1754379816836
3484,65.66151801770818
3485,65.13560930798381
3486,64.59859207389121
3487,64.05133439359336
3488,63.49468994220916
3489,62.92949593607842
3490,62.356571280841614
3491,61.77671492126397
3492,61.190704389123496
3493,60.599294544062865
3494,60.003216501073496
3495,59.403176737236564
3496,58.79985636948143
3497,58.19391059443176
3498,57.58596828088146
3499,56.976631705067305
3500,56.366476418668505
3501,55.75605123935426
3502,55.14587835370428
3503,54.53645352243215
3504,53.928246378031915
3505,53.32170080523591
3506,52.717235394998866
3507,52.11524396310424
3508,51.51609612490801
3509,50.92013791818646
3510,50.32769246652659
3511,49.73906067618459
3512,49.15452195983104
3513,48.57433498109488
3514,47.99873841430782
3515,47.427951714330234
3516,46.86217589180646
3517,46.30159428964785
3518,45.74637335697382
3519,45.19666341715234
3520,44.65259942697101
3521,44.11430172433598
3522,43.58187676223946
3523,43.05541782705609
3524,42.53500573952466
3525,42.02070953704455
3526,41.51258713616727
3527,41.0106859743915
3528,40.51504363057872
3529,40.02568842349343
3530,39.5426399881416
3531,39.065909829731154
3532,38.59550185521303
3533,38.13141288247952
3534,37.67363312740038
3535,37.22214666896765
3536,36.77693189289828
3537,36.337961914109584
3538,35.905204978539246
3539,35.478624844827976
3540,35.058181146420786
3541,34.64382973467341
3542,34.235523003573626
3543,33.83321019670426
3544,33.436837697086474
3545,33.04634930054825
3546,32.66168647326594
3547,32.282788594124725
3548,31.909593182539762
3549,31.542036112371953
3550,31.180051812562574
3551,30.823573455098995
3552,30.472533130910207
3553,30.126862014275705
3554,29.786490516315375
3555,29.451348428110517
3556,29.121365053989056
3557,28.79646933548922
3558,28.476589966497652
3559,28.161655500039362
3560,27.851594447177852
3561,27.546335368465332
3562,27.245806958364284
3563,26.949938123043253
3564,26.658658051932083
3565,26.371896283403792
3566,26.089582764933272
3567,25.811647908066412
3568,25.538022638516495
3569,25.268638441689593
3570,25.003427403924793
3571,24.742322249720896
3572,24.48525637520672
3573,24.232163878098753
3574,23.98297958437658
3575,23.73763907189432
3576,23.49607869113386
3577,23.258235583294596
3578,23.024047695903256
3579,22.793453796116875
3580,22.566393481882166
3581,22.342807191104946
3582,22.12263620897431
3583,21.905822673577653
3584,21.692309579934463
3585,21.482040782569182
3586,21.274960996736066
3587,21.071015798401913
3588,20.870151623086247
3589,20.672315763652005
3590,20.477456367134163
3591,20.28552243068802
3592,20.096463796733754
3593,19.910231147368687
3594,19.726775998114395
3595,19.546050691060934
3596,19.368008387466784
3597,19.192603059868794
3598,19.019789483752987
3599,18.849523228833544
3600,18.681760649983953
3601,18.51645887786143
3602,18.353575809262622
3603,18.193070097246043
3604,18.034901141054085
3605,17.87902907586519
3606,17.725414762404203
3607,17.57401977643733
3608,17.424806398175626
3609,17.27773760160956
3610,17.13277704379507
3611,16.98988905411028
3612,16.849038623500164
3613,16.71019139372541
3614,16.57331364663006
3615,16.43837229344151
3616,16.305334864115185
3617,16.174169496735143
3618,16.04484492698086
3619,15.917330477669543
3620,15.791596048382305
3621,15.667612105181986
3622,15.545349670429296
3623,15.424780312703536
3624,15.305876136833387
3625,15.188609774042545
3626,15.072954372214651
3627,14.958883586281166
3628,14.84637156873553
3629,14.73539296027647
3630,14.625922880582788
3631,14.51793691922171
3632,14.411411126692439
3633,14.30632200560623
3634,14.202646502004011
3635,14.100361996812298
3636,13.999446297437846
3637,13.899877629501322
3638,13.801634628709945
3639,13.704696332868984
3640,13.609042174031686
3641,13.514651970787115
3642,13.421505920685187
3643,13.329584592798131
3644,13.2388689204173
3645,13.14934019388437
3646,13.0609800535557
3647,12.973770482898534
3648,12.887693801717784
3649,12.80273265951187
3650,12.718870028956173
3651,12.636089199512545
3652,12.554373771163212
3653,12.4737076482675
3654,12.394075033539615
3655,12.315460422145811
3656,12.237848595919187
3657,12.161224617690259
3658,12.085573825731686
3659,12.01088182831514
3660,11.937134498378688
3661,11.864317968302721
3662,11.792418624792726
3663,11.721423103866984
3664,11.651318285947424
3665,11.582091291051801
3666,11.513729474085386
3667,11.4462204202304
3668,11.37955194043134
3669,11.313712066974498
3670,11.248689049159852
3671,11.184471349063646
3672,11.121047637389843
3673,11.058406789408853
3674,10.996537880981787
3675,10.935430184668522
3676,10.875073165918076
3677,10.815456479339495
3678,10.75656996505179
3679,10.698403645111242
3680,10.640947720014625
3681,10.584192565276703
3682,10.528128728080572
3683,10.47274692399933
3684,10.418038033787646
3685,10.363993100241746
3686,10.310603325126452
3687,10.257860066167877
3688,10.205754834110394
3689,10.154279289836571
3690,10.103425241548774
3691,10.053184642011091
3692,10.003549585850395
3693,9.954512306915243
3694,9.906065175691445
3695,9.85820069677311
3696,9.810911506387937
3697,9.764190369975728
3698,9.718030179818879
3699,9.67242395272388
3700,9.627364827752634
3701,9.582846064002611
3702,9.538861038434808
3703,9.495403243748488
3704,9.452466286301727
3705,9.410043884076787
3706,9.368129864689402
3707,9.32671816344104
3708,9.285802821413235
3709,9.245377983603097
3710,9.205437897099195
3711,9.165976909296873
3712,9.12698946615229
3713,9.088470110474274
3714,9.050413480253278
3715,9.012814307026629
3716,8.975667414279336
3717,8.938967715879727
3718,8.902710214549177
3719,8.866890000365261
3720,8.83150224929761
3721,8.79654222177584
3722,8.762005261288886
3723,8.72788679301509
3724,8.694182322482456
3725,8.66088743425846
3726,8.627997790668765
3727,8.595509130544396
3728,8.56341726799665
3729,8.531718091219329
3730,8.500407561317687
3731,8.4694817111636
3732,8.438936644276428
3733,8.408768533729122
3734,8.378973621079007
3735,8.349548215322883
3736,8.320488691875887
3737,8.291791491573731
3738,8.263453119697854
3739,8.235470145023077
3740,8.20783919888736
3741,8.180556974283217
3742,8.153620224970462
3743,8.127025764609861
3744,8.100770465917348
3745,8.074851259838413
3746,8.04926513474237
3747,8.024009135636122
3748,7.999080363397104
3749,7.974475974025098
3750,7.950193177912605
3751,7.926229239133483
3752,7.902581474749534
3753,7.879247254134803
3754,7.856223998317267
3755,7.833509179337709
3756,7.8111003196254565
3757,7.788994991390799
3758,7.767190816033815
3759,7.74568546356937
3760,7.724476652068116
3761,7.703562147113202
3762,7.682939761272573
3763,7.662607353586595
3764,7.642562829070863
3765,7.622804138233986
3766,7.60332927661018
3767,7.584136284306509
3768,7.565223245564629
3769,7.546588288336854
3770,7.528229583876412
3771,7.510145346341795
3772,7.492333832415012
3773,7.474793340933675
3774,7.4575222125367695
3775,7.440518829324042
3776,7.423781614528879
3777,7.407309032204582
3778,7.391099586923991
3779,7.375151823492329
3780,7.359464326673274
3781,7.3440357209281
3782,7.328864670167915
3783,7.313949877518917
3784,7.299290085100637
3785,7.284884073817116
3786,7.270730663161042
3787,7.256828711030767
3788,7.24317711356026
3789,7.229774804961932
3790,7.216620757382427
3791,7.203713980771281
3792,7.191053522762571
3793,7.178638468569558
3794,7.166467940892325
3795,7.154541099838501
3796,7.142857142857142
3797,7.131311960494129
3798,7.1198019122522656
3799,7.108326926856933
3800,7.096886932862241
3801,7.085481858656928
3802,7.074111632470202
3803,7.062776182377509
3804,7.051475436306217
3805,7.040209322041241
3806,7.028977767230586
3807,7.017780699390831
3808,7.006618045912533
3809,6.99548973406557
3810,6.9843956910044085
3811,6.973335843773313
3812,6.962310119311476
3813,6.951318444458094
3814,6.940360745957372
3815,6.929436950463466
3816,6.91854698454535
3817,6.907690774691639
3818,6.89686824731534
3819,6.886079328758527
3820,6.875323945296982
3821,6.8646020231447515
3822,6.853913488458653
3823,6.843258267342722
3824,6.832636285852599
3825,6.822047469999853
3826,6.811491745756256
3827,6.800969039057999
3828,6.790479275809834
3829,6.780022381889193
3830,6.7695982831502155
3831,6.7592069054277575
3832,6.74884817454131
3833,6.738522016298886
3834,6.728228356500862
3835,6.717967120943738
3836,6.707738235423867
3837,6.697541625741137
3838,6.687377217702585
3839,6.677244937125974
3840,6.667144709843309
3841,6.657076461704319
3842,6.6470401185798815
3843,6.637035606365391
3844,6.627062850984098
3845,6.617121778390386
3846,6.60721231457301
3847,6.597334385558283
3848,6.58748791741323
3849,6.577672836248674
3850,6.567889068222301
3851,6.558136539541666
3852,6.5484151764671665
3853,6.538724905314962
3854,6.529065652459858
3855,6.519437344338145
3856,6.5098399074504005
3857,6.50027326836425
3858,6.490737353717071
3859,6.481232090218683
3860,6.471757404653983
3861,6.462313223885537
3862,6.452899474856148
3863,6.44351608459137
3864,6.434162980201999
3865,6.424840088886513
3866,6.41554733793348
3867,6.406284654723943
3868,6.39705196673374
3869,6.387849201535815
3870,6.378676286802476
3871,6.369533150307641
3872,6.360419719929018
3873,6.351335923650273
3874,6.342281689563162
3875,6.333256945869623
3876,6.324261620883837
3877,6.315295643034267
3878,6.306358940865643
3879,6.297451443040942
3880,6.288573078343317
3881,6.279723775678
3882,6.270903464074175
3883,6.262112072686833
3884,6.253349530798573
3885,6.244615767821394
3886,6.235910713298446
3887,6.227234296905765
3888,6.218586448453962
3889,6.209967097889903
3890,6.201376175298343
3891,6.192813610903549
3892,6.184279335070887
3893,6.175773278308386
3894,6.167295371268267
3895,6.158845544748463
3896,6.1504237296941
3897,6.142029857198948
3898,6.133663858506874
3899,6.125325665013227
3900,6.117015208266248
3901,6.1087324199684145
3902,6.100477231977786
3903,6.092249576309315
3904,6.084049385136138
3905,6.075876590790848
3906,6.067731125766737
3907,6.059612922719018
3908,6.051521914466029
3909,6.043458033990415
3910,6.035421214440284
3911,6.027411389130343
3912,6.019428491543021
3913,6.011472455329558
3914,6.00354321431109
3915,5.995640702479693
3916,5.987764853999432
3917,5.97991560320737
3918,5.972092884614569
3919,5.964296632907068
3920,5.956526782946843
3921,5.948783269772752
3922,5.941066028601455
3923,5.933374994828318
3924,5.925710104028309
3925,5.918071291956862
3926,5.910458494550732
3927,5.902871647928834
3928,5.895310688393062
3929,5.887775552429087
3930,5.880266176707158
3931,5.872782498082853
3932,5.865324453597857
3933,5.857891980480684
3934,5.8504850161474105
3935,5.843103498202386
3936,5.8357473644389195
3937,5.828416552839968
3938,5.8211110015787995
3939,5.813830649019642
3940,5.806575433718322
3941,5.79934529442289
3942,5.7921401700742265
3943,5.784959999806642
3944,5.777804722948456
3945,5.770674279022573
3946,5.763568607747031
3947,5.756487649035557
3948,5.749431342998089
3949,5.7423996299413025
3950,5.735392450369115
3951,5.728409744983184
3952,5.721451454683387
3953,5.714517520568305
3954,5.707607883935665
3955,5.700722486282813
3956,5.693861269307133
3957,5.687024174906487
3958,5.68021114517963
3959,5.673422122426618
3960,5.666657049149199
3961,5.659915868051215
3962,5.653198522038956
3963,5.64650495422155
3964,5.639835107911303
3965,5.633188926624059
3966,5.6265663540795305
3967,5.619967334201634
3968,5.613391811118805
3969,5.606839729164313
3970,5.600311032876565
3971,5.593805666999393
3972,5.587323576482354
3973,5.58086470648099
3974,5.574429002357111
3975,5.568016409679054
3976,5.561626874221929
3977,5.555260341967873
3978,5.548916759106288
3979,5.542596072034066
3980,5.536298227355822
3981,5.530023171884101
3982,5.523770852639597
3983,5.517541216851345
3984,5.511334211956928
3985,5.505149785602662
3986,5.498987885643772
3987,5.492848460144582
3988,5.486731457378677
3989,5.480636825829064
3990,5.47456451418834
3991,5.468514471358837
3992,5.4624866464527715
3993,5.456480988792385
3994,5.450497447910079
3995,5.444535973548547
3996,5.438596515660896
3997,5.432679024410768
3998,5.426783450172459
3999,5.420909743531021
4000,5.41505785528237
4001,5.409227736433392
4002,5.403419338202026
4003,5.397632612017366
4004,5.3918675095197495
4005,5.386123982560826
4006,5.380401983203648
4007,5.374701463722744
4008,5.36902237660418
4009,5.363364674545637
4010,5.357728310456467
4011,5.3521132374577505
4012,5.34651940888236
4013,5.340946778275001
4014,5.335395299392271
4015,5.329864926202695
4016,5.3243556128867775
4017,5.318867313837033
4018,5.313399983658025
4019,5.307953577166401
4020,5.302528049390919
4021,5.297123355572478
4022,5.291739451164144
4023,5.286376291831166
4024,5.2810338334510005
4025,5.275712032113332
4026,5.270410844120081
4027,5.26513022598542
4028,5.259870134435786
4029,5.25463052640989
4030,5.249411359058719
4031,5.244212589745544
4032,5.239034176045924
4033,5.233876075747706
4034,5.228738246851026
4035,5.223620647568305
4036,5.218523236324249
4037,5.213445971755841
4038,5.2083888127123386
4039,5.203351718255263
4040,5.1983346476583945
4041,5.1933375604077625
4042,5.188360416201628
4043,5.183403174950484
4044,5.178465796777036
4045,5.17354824201619
4046,5.168650471215035
4047,5.163772445132839
4048,5.158914124741023
4049,5.154075471223152
4050,5.149256445974915
4051,5.144457010604111
4052,5.139677126930635
4053,5.134916756986453
4054,5.130175863015593
4055,5.125454407474123
4056,5.120752353030141
4057,5.116069662563739
4058,5.111406299167014
4059,5.106762226144028
4060,5.102137407010799
4061,5.097531805495288
4062,5.092945385537378
4063,5.088378111288861
4064,5.083829947113422
4065,5.079300857586619
4066,5.0747908074958845
4067,5.0702997618404915
4068,5.065827685831555
4069,5.061374544892017
4070,5.056940304656631
4071,5.052524930971957
4072,5.048128389896353
4073,5.043750647699957
4074,5.039391670864692
4075,5.035051426084257
4076,5.030729880264116
4077,5.0264270005214975
4078,5.022142754185398
4079,5.017877108796573
4080,5.013630032107541
4081,5.009401492082585
4082,5.0051914568977605
4083,5.000999894940891
4084,4.996826774811582
4085,4.992672065321233
4086,4.988535735493032
4087,4.984417754561987
4088,4.980318091974927
4089,4.976236717390524
4090,4.972173600679305
4091,4.968128711923679
4092,4.964102021417955
4093,4.960093499668362
4094,4.956103117393084
4095,4.952130845522284
4096,4.948176655198131
4097,4.944240517774841
4098,4.940322404818708
4099,4.936422288108138
4100,4.932540139633698
4101,4.928675931598155
4102,4.924829636416519
4103,4.921001226716096
4104,4.917190675336535
4105,4.913397955329883
4106,4.909623039960646
4107,4.905865902705841
4108,4.902126517255063
4109,4.898404857510549
4110,4.894700897587248
4111,4.891014611812888
4112,4.887345974728055
4113,4.883694961086274
4114,4.880061545854076
4115,4.8764457042111005
4116,4.872847411550167
4117,4.869266643477378
4118,4.865703375812204
4119,4.862157584587591
4120,4.858629246050051
4121,4.855118336659775
4122,4.851624833090739
4123,4.848148712230814
4124,4.844689951181889
4125,4.841248527259979
4126,4.8378244179953604
4127,4.834417601132694
4128,4.831028054631152
4129,4.82765575666456
4130,4.824300685621534
4131,4.820962820105622
4132,4.817642138935455
4133,4.814338621144895
4134,4.811052245983195
4135,4.807782992915157
4136,4.804530841621298
4137,4.801295771998015
4138,4.798077764157769
4139,4.794876798429248
4140,4.791692855357563
4141,4.788525915704427
4142,4.785375960448351
4143,4.78224297078484
4144,4.779126928126592
4145,4.776027814103706
4146,4.7729456105638945
4147,4.769880299572693
4148,4.766831863413693
4149,4.763800284588755
4150,4.760785545818246
4151,4.757787630041276
4152,4.754806520415936
4153,4.751842200319551
4154,4.748894653348922
4155,4.745963863320592
4156,4.743049814271105
4157,4.740152490457275
4158,4.7372718763564565
4159,4.734407956666832
4160,4.731560716307685
4161,4.7287301404197
4162,4.725916214365255
4163,4.723118923728722
4164,4.720338254316783
4165,4.717574192158731
4166,4.714826723506799
4167,4.712095834836485
4168,4.709381512846884
4169,4.706683744461017
4170,4.704002516826193
4171,4.701337817314342
4172,4.698689633522383
4173,4.696057953272584
4174,4.693442764612928
4175,4.6908440558174975
4176,4.68826181538685
4177,4.68569603204841
4178,4.683146694756868
4179,4.680613792694578
4180,4.67809731527197
4181,4.675597252127972
4182,4.673113593130423
4183,4.670646328376511
4184,4.668195448193211
4185,4.665760943137726
4186,4.663342803997939
4187,4.660941021792882
4188,4.65855558777319
4189,4.656186493421578
4190,4.653833730453333
4191,4.651497290816788
4192,4.649177166693835
4193,4.646873350500414
4194,4.644585834887035
4195,4.642314612739298
4196,4.640059677178418
4197,4.637821021561762
4198,4.6355986394833915
4199,4.633392524774622
4200,4.631202671504575
4201,4.62902907398075
4202,4.626871726749606
4203,4.624730624597139
4204,4.622605762549484
4205,4.620497135873514
4206,4.618404740077451
4207,4.616328570911487
4208,4.614268624368415
4209,4.612224896684263
4210,4.6101973843389485
4211,4.608186084056924
4212,4.606190992807851
4213,4.604212107807271
4214,4.6022494265172895
4215,4.60030294664727
4216,4.598372666154536
4217,4.596458583245085
4218,4.594560696374308
4219,4.592679004247725
4220,4.590813505821723
4221,4.588964200304311
4222,4.587131087155877
4223,4.585314166089968
4224,4.583513437074063
4225,4.581728900330372
4226,4.579960556336636
4227,4.578208405826942
4228,4.576472449792547
4229,4.5747526894827075
4230,4.573049126405538
4231,4.5713617623288485
4232,4.5696905992810315
4233,4.56803563955193
4234,4.566396885693727
4235,4.564774340521852
4236,4.56316800711589
4237,4.561577888820508
4238,4.560003989246386
4239,4.558446312271175
4240,4.556904862040444
4241,4.555379642968661
4242,4.553870659740174
4243,4.552377917310205
4244,4.550901420905861
4245,4.549441176027152
4246,4.547997188448028
4247,4.5465694642174235
4248,4.545158009660313
4249,4.543762831378787
4250,4.542383936253139
4251,4.5410213314429555
4252,4.539675024388235
4253,4.5383450228105096
4254,4.537031334713983
4255,4.535733968386685
4256,4.534452932401638
4257,4.533188235618028
4258,4.531939887182415
4259,4.530707896529926
4260,4.529492273385487
4261,4.528293027765056
4262,4.527110169976878
4263,4.525943710622747
4264,4.524793660599294
4265,4.523660031099282
4266,4.522542833612912
4267,4.521442079929159
4268,4.520357782137111
4269,4.519289952627331
4270,4.518238604093226
4271,4.5172037495324435
4272,4.516185402248274
4273,4.51518357585108
4274,4.514198284259729
4275,4.513229541703056
4276,4.512277362721333
4277,4.5113417621677625
4278,4.510422755209983
4279,4.509520357331595
4280,4.508634584333702
4281,4.507765452336476
4282,4.506912977780728
4283,4.506077177429512
4284,4.5052580683697325
4285,4.504455668013786
4286,4.503669994101202
4287,4.502901064700326
4288,4.502148898209998
4289,4.501413513361271
4290,4.50069492921913
4291,4.49999316518425
4292,4.499308240994754
4293,4.498640176728008
4294,4.497988992802427
4295,4.497354709979303
4296,4.496737349364658
4297,4.496136932411105
4298,4.495553480919751
4299,4.494987017042105
4300,4.494437563282007
4301,4.493905142497596
4302,4.493389777903277
4303,4.492891493071727
4304,4.492410311935916
4305,4.491946258791157
4306,4.491499358297167
4307,4.491069635480171
4308,4.490657115735002
4309,4.490261824827255
4310,4.489883788895439
4311,4.489523034453173
4312,4.489179588391394
4313,4.488853477980594
4314,4.488544730873083
4315,4.488253375105274
4316,4.487979439100001
4317,4.487722951668851
4318,4.4874839420145385
4319,4.487262439733286
4320,4.487058474817245
4321,4.486872077656954
4322,4.486703279043791
4323,4.4865521101724894
4324,4.48641860264366
4325,4.486302788466346
4326,4.486204700060614
4327,4.486124370260161
4328,4.486061832314968
4329,4.486017119893961
4330,4.48599026708772
4331,4.485981308411215
4332,4.489466323228311
4333,4.499791997009016
4334,4.516808269730937
4335,4.5404197182382715
4336,4.570581548399527
4337,4.607296655379754
4338,4.650613606783139
4339,4.7006254409928765
4340,4.757469203253488
4341,4.8213261669011445
4342,4.892422708149085
4343,4.971031821125311
4344,5.05747527633496
4345,5.15212644109805
4346,5.255413795384954
4347,5.367825191336357
4348,5.489912920044039
4349,5.622299665265654
4350,5.765685440987787
4351,5.920855628426994
4352,6.088690248397176
4353,6.270174627111479
4354,6.466411637425965
4355,6.678635723047752
4356,6.9082289397548315
4357,7.156739274108867
4358,7.425901524571979
4359,7.717661049216548
4360,8.034200693343571
4361,8.377971201536107
4362,8.751725380110098
4363,9.158556189692533
4364,9.601938787032955
4365,10.085776260583815
4366,10.614448357826387
4367,11.192861799391801
4368,11.826499694380619
4369,12.521465940749941
4370,13.284518074304769
4371,14.123078493714972
4372,15.045208910321987
4373,16.05952572369316
4374,17.175024222191116
4375,18.400766540512823
4376,19.745372041747647
4377,21.21623010327582
4378,22.818337192813605
4379,24.552649656189445
4380,26.413854481488386
4381,28.387515563450776
4382,30.44668593509226
4383,32.54832408064208
4384,34.630233577540196
4385,36.60971490914333
4386,38.38550458233326
4387,39.844546004486055
4388,40.87428264463912
4389,41.37931034482759
4390,41.59729574507167
4391,41.81368413629516
4392,42.028365873654735
4393,42.24122951285953
4394,42.45216188016427
4395,42.661048148315174
4396,42.867771918541784
4397,43.072215308672256
4398,43.274259047433745
4399,43.473782574980625
4400,43.67066414967528
4401,43.864780961124985
4402,44.05600924945714
4403,44.24422443079282
4404,44.4293012288539
4405,44.611113812615116
4406,44.789535939886015
4407,44.96444110668137
4408,45.13570270221105
4409,45.30319416929257
4410,45.466789169960464
4411,45.62636175601823
4412,45.78178654424896
4413,45.93293889597174
4414,46.07969510060163
4415,46.22193256284213
4416,46.35952999311073
4417,46.492367600770336
4418,46.62032728971219
4419,46.7432928558106
4420,46.861150185744776
4421,46.97378745666009
4422,47.08109533612
4423,47.182967181779745
4424,47.279299240196366
4425,47.36999084417371
4426,47.45494460802895
4427,47.534066620157105
4428,47.60726663226254
4429,47.674458244622855
4430,47.73555908674868
4431,47.790490992805694
4432,47.8391801711699
4433,47.881557367496434
4434,47.917558020693846
4435,47.94712241121144
4436,47.97019580106621
4437,47.986728565058144
4438,47.99667631264787
4439,48.0
4440,47.999481970874065
4441,47.99793986522925
4442,47.995391750533706
4443,47.99185581466393
4444,47.987350358383694
4445,47.981893787926886
4446,47.975504607688684
4447,47.96820141302936
4448,47.96000288319492
4449,47.95092777435837
4450,47.94099491278541
4451,47.93022318812793
4452,47.91863154684852
4453,47.90623898577925
4454,47.89306454581722
4455,47.87912730575997
4456,47.86444637628264
4457,47.849040894059634
4458,47.832930016032456
4459,47.81613291382581
4460,47.79866876831342
4461,47.78055676433537
4462,47.76181608556784
4463,47.74246590954678
4464,47.72252540284631
4465,47.70201371641258
4466,47.68094998105392
4467,47.65935330308764
4468,47.63724276014389
4469,47.614637397126764
4470,47.591556222332734
4471,47.568018203726304
4472,47.54404226537287
4473,47.51964728402816
4474,47.49485208588414
4475,47.46967544347075
4476,47.44413607271276
4477,47.41825263014104
4478,47.392043710257596
4479,47.365527843053144
4480,47.33872349167648
4481,47.311649050254466
4482,47.284322841861524
4483,47.256763116637394
4484,47.228988050051896
4485,47.20101574131534
4486,47.17286421193334
4487,47.14455140440436
4488,47.11609518105886
4489,47.08751332303816
4490,47.05882352941177
4491,47.02301773667101
4492,46.97318301695107
4493,46.9094978140423
4494,46.83216395724435
4495,46.74140564703377
4496,46.63746835927162
4497,46.52061767704447
4498,46.39113805957296
4499,46.249331557847015
4500,46.095516486760374
4501,45.930026063519726
4502,45.75320702200265
4503,45.565418212538965
4504,45.36702919630008
4505,45.158418843108784
4506,44.93997394103787
4507,44.71208782565891
4508,44.47515903624393
4509,44.22959000562161
4510,43.97578578975829
4511,43.71415284248018
4512,43.44509784008839
4513,43.16902655995085
4514,42.8863428164927
4515,42.597447457358314
4516,42.3027374218891
4517,42.00260486345847
4518,41.697436336632805
4519,41.38761204959051
4520,41.073505181731626
4521,40.7554812659523
4522,40.43389763464118
4523,40.10910292808167
4524,39.78143666361317
4525,39.45122886361621
4526,39.118799740140744
4527,38.784459433790644
4528,38.448507804310374
4529,38.11123427018913
4530,37.77291769450128
4531,37.4338263141372
4532,37.09421770954313
4533,36.754338812079595
4534,36.41442594612247
4535,36.074704903067065
4536,35.735391044449656
4537,35.39668943147159
4538,35.05879497829501
4539,34.72189262657512
4540,34.386157538797825
4541,34.05175530810455
4542,33.71884218240249
4543,33.387565300680265
4544,33.05806293957225
4545,32.73046476833923
4546,32.40489211055728
4547,32.08145821092967
4548,31.760268505757438
4549,31.44142089572216
4550,31.125006019748785
4551,30.81110752882702
4552,30.499802358775117
4553,30.1911610010317
4554,29.885247770656875
4555,29.582121070815134
4556,29.281833653098147
4557,28.98443287312629
4558,28.689960940942434
4559,28.39845516578228
4560,28.109948194869887
4561,27.824468245947454
4562,27.54203933330361
4563,27.262681487114865
4564,26.986410965961653
4565,26.713240462421908
4566,26.44317930168361
4567,26.176233633151845
4568,25.912406615056803
4569,25.65169859209641
4570,25.39410726617204
4571,25.139627860296656
4572,24.888253275773994
4573,24.63997424276347
4574,24.39477946435933
4575,24.15265575432499
4576,23.913588168632707
4577,23.677560130967713
4578,23.444553552361953
4579,23.21454894512812
4580,22.987525531268144
4581,22.763461345533454
4582,22.542333333315398
4583,22.324117443545244
4584,22.108788716782936
4585,21.89632136867264
4586,21.68668886894199
4587,21.47986401611929
4588,21.275819008140793
4589,21.07452550901677
4590,20.875954711721903
4591,20.680077397471788
4592,20.48686399154325
4593,20.296284615792292
4594,20.10830913801891
4595,19.922907218323818
4596,19.740048352597363
4597,19.559701913276683
4598,19.38183718750219
4599,19.206423412800067
4600,19.033429810412972
4601,18.862825616396258
4602,18.69458011059291
4603,18.528662643595634
4604,18.365042661800416
4605,18.20368973065133
4606,18.04457355617256
4607,17.887664004879078
4608,17.732931122153797
4609,17.580345149174956
4610,17.429876538473817
4611,17.28149596819911
4612,17.135174355161112
4613,16.990882866724828
4614,16.848592931618576
4615,16.708276249720956
4616,16.56990480088624
4617,16.43345085286525
4618,16.298886968375985
4619,16.166186011375558
4620,16.035321152582373
4621,15.906265874295041
4622,15.778993974552156
4623,15.653479570674644
4624,15.529697102230436
4625,15.407621333458941
4626,15.287227355190886
4627,15.168490586297233
4628,15.051386774698983
4629,14.93589199796798
4630,14.821982663547256
4631,14.709635508617756
4632,14.59882759963692
4633,14.489536331573106
4634,14.38173942685849
4635,14.275414934081821
4636,14.170541226441225
4637,14.067096999975943
4638,13.965061271595019
4639,13.864413376919682
4640,13.765132967955365
4641,13.667200010608191
4642,13.570594782060043
4643,13.475297868015325
4644,13.381290159831858
4645,13.28855285154749
4646,13.197067436813382
4647,13.106815705744149
4648,13.01777974169448
4649,12.929941917971211
4650,12.84328489448928
4651,12.757791614379377
4652,12.673445300554707
4653,12.590229452243708
4654,12.508127841495105
4655,12.427124509661361
4656,12.347203763866013
4657,12.268350173460124
4658,12.190548566472708
4659,12.113784026059529
4660,12.03804188695452
4661,11.963307731927637
4662,11.889567388252754
4663,11.816806924188855
4664,11.745012645477622
4665,11.674171091860222
4666,11.604269033615855
4667,11.535293468124499
4668,11.467231616455964
4669,11.400070919987318
4670,11.333799037050447
4671,11.26840383961148
4672,11.203873409983482
4673,11.140196037573899
4674,11.077360215667868
4675,11.015354638248573
4676,10.954168196855603
4677,10.893789977482154
4678,10.834209257511903
4679,10.775415502696179
4680,10.717398364172043
4681,10.66014767552177
4682,10.603653449874134
4683,10.54790587704788
4684,10.492895320737663
4685,10.438612315742608
4686,10.385047565237764
4687,10.332191938088464
4688,10.280036466207696
4689,10.228572341956484
4690,10.177790915587249
4691,10.127683692730077
4692,10.078242331921823
4693,10.02945864217783
4694,9.981324580606195
4695,9.933832250064327
4696,9.886973896857581
4697,9.840741908479743
4698,9.79512881139507
4699,9.750127268861686
4700,9.705730078795883
4701,9.661930171677193
4702,9.618720608493792
4703,9.576094578727881
4704,9.534045398380835
4705,9.49256650803758
4706,9.45165147096999
4707,9.411293971278875
4708,9.371487812074143
4709,9.332226913692871
4710,9.293505311954792
4711,9.255317156454906
4712,9.21765670889279
4713,9.180518341438226
4714,9.143896535132813
4715,9.107785878327123
4716,9.072181065153089
4717,9.037076894031221
4718,9.00246826621227
4719,8.968350184353055
4720,8.934717751125968
4721,8.901566167861958
4722,8.868890733226515
4723,8.836686841928428
4724,8.804949983460881
4725,8.77367574087467
4726,8.742859789583152
4727,8.712497896198636
4728,8.682585917399956
4729,8.65311979883088
4730,8.624095574029132
4731,8.595509363385704
4732,8.567357373134268
4733,8.539635894370363
4734,8.512341302100173
4735,8.485470054318661
4736,8.459018691116832
4737,8.43298383381791
4738,8.407362184142297
4739,8.38215052340105
4740,8.357345711717773
4741,8.332944687278765
4742,8.308944465611237
4743,8.285342138889526
4744,8.262134875269169
4745,8.239319918248725
4746,8.216894586059286
4747,8.194856271081587
4748,8.173202439290668
4749,8.151930629728048
4750,8.13103845400138
4751,8.110523595811584
4752,8.090383810507461
4753,8.070616924667833
4754,8.05122083571119
4755,8.032193511533007
4756,8.013532990170683
4757,7.995237379496315
4758,7.977304856937327
4759,7.95973366922516
4760,7.942522132172114
4761,7.9256686304765775
4762,7.909171617556787
4763,7.89302961541336
4764,7.877241214520849
4765,7.861805073748542
4766,7.846719920310841
4767,7.831984549747505
4768,7.817597825934057
4769,7.8035586811228095
4770,7.789866116014794
4771,7.776519199863081
4772,7.763517070607896
4773,7.750858935044008
4774,7.738544069020927
4775,7.72657181767642
4776,7.714941595703883
4777,7.703652887654257
4778,7.6927052482730165
4779,7.682098302873027
4780,7.671831747743851
4781,7.661905350598366
4782,7.6523189510574445
4783,7.643072461173489
4784,7.634165865993777
4785,7.625599224164499
4786,7.617372668576454
4787,7.609486407053472
4788,7.601940723084566
4789,7.594735976601024
4790,7.587872604799556
4791,7.581351123012818
4792,7.575172125628515
4793,7.569336287058586
4794,7.563844362759771
4795,7.558697190307187
4796,7.553895690522429
4797,7.549440868657868
4798,7.545333815638905
4799,7.541575709365952
4800,7.538167816078166
4801,7.535111491780795
4802,7.53240818373834
4803,7.530059432035695
4804,7.528066871209612
4805,7.52643223195285
4806,7.5251573428936185
4807,7.524244132452892
4808,7.523694630782506
4809,7.523510971786834
4810,7.5370482339575124
4811,7.576978421701076
4812,7.6426575882610575
4813,7.733901893477843
4814,7.850950201884493
4815,7.99444498510698
4816,8.165428782016175
4817,8.365354697288456
4818,8.596110374332394
4819,8.860055678410871
4820,9.160075051169382
4821,9.499646207757419
4822,9.882927587075097
4823,10.31486776787898
4824,10.801340949407573
4825,11.349313566139012
4826,11.967048128293738
4827,12.664351352935501
4828,13.452874352944592
4829,14.346472636705597
4830,15.361632089424202
4831,16.51796238583031
4832,17.838748585401376
4833,19.35152996270832
4834,21.088633735128877
4835,23.087515663227766
4836,25.390626058309405
4837,28.044293684159275
4838,31.09575719360547
4839,34.58693931430592
4840,38.54289186495723
4841,42.952316404246275
4842,47.73802349909746
4843,52.71843190951752
4844,57.56979105800437
4845,61.813422102260446
4846,64.86486486486486
4847,67.17795020452789
4848,69.59963565048709
4849,72.12839752929953
4850,74.76080888769653
4851,77.49109957646328
4852,80.31066534221287
4853,83.20753548294824
4854,86.16581674449066
4855,89.16514162817141
4856,92.18016201295023
4857,95.18014330778401
4858,98.12872881452923
4859,100.98395618771124
4860,103.69861435037257
4861,106.22102562098411
4862,108.49631954600049
4863,110.4682283786147
4864,112.08137825718117
4865,113.28397826463036
4866,114.0307306767111
4867,114.28571428571428
4868,114.2322755355361
4869,114.07535284342586
4870,113.82041802998161
4871,113.47337731714383
4872,113.04047877166927
4873,112.52822187506413
4874,111.94327109115261
4875,111.29237497118486
4876,110.58229199056971
4877,109.81972396909366
4878,109.01125760281421
4879,108.1633143420828
4880,107.28210859411597
4881,106.37361401457022
4882,105.44353748208678
4883,104.49730022173155
4884,103.5400254547997
4885,102.57653189943723
4886,101.61133242406375
4887,100.64863715844804
4888,99.69236039032398
4889,98.74613061376094
4890,97.81330314471967
4891,96.89697477550861
4892,96.0
4893,95.04774695549338
4894,93.97347675235008
4895,92.79183574542681
4896,91.51740642930383
4897,90.16445458573597
4898,88.74671893218658
4899,87.27724402573985
4900,85.76825504252946
4901,84.23107144000434
4902,82.6760554101892
4903,81.11259039835782
4904,79.54908472033452
4905,77.9929953792726
4906,76.45086747543426
4907,74.92838504366298
4908,73.43042967785574
4909,71.96114385800585
4910,70.52399644468713
4911,69.12184832150798
4912,67.75701663149295
4913,66.43133645996643
4914,65.1462191617412
4915,63.902706815882
4916,62.70152252138398
4917,61.54311642769431
4918,60.427707531721914
4919,59.35532137451086
4920,58.32582384245608
4921,57.33895132560919
4922,56.39433751436278
4923,55.49153712999698
4924,54.63004688789971
4925,53.80932398776158
4926,53.02880241514577
4927,52.28790732549316
4928,51.58606776637183
4929,50.922727977799084
4930,50.29735749465984
4931,49.709460260299885
4932,49.158582946807236
4933,48.644322665706866
4934,48.16633424309773
4935,47.72433722592321
4936,47.318122781332406
4937,46.947560649215376
4938,46.61260630926708
4939,46.313308528702144
4940,46.04981746544241
4941,45.822393514789205
4942,45.63141710599434
4943,45.47739967968525
4944,45.36099610898255
4945,45.28301886792453
4946,45.22601333600388
4947,45.17181957254672
4948,45.12032131350146
4949,45.071404208822926
4950,45.02495569154372
4951,44.98086485402026
4952,44.93902233103168
4953,44.899320189437
4954,44.86165182412088
4955,44.825911859981645
4956,44.79199605973712
4957,44.759801237343154
4958,44.729225176838845
4959,44.70016655644923
4960,44.67252487779216
4961,44.64620040005046
4962,44.62109407898411
4963,44.59710751066953
4964,44.57414287986405
4965,44.552102912904225
4966,44.53089083505601
4967,44.51041033224297
4968,44.49056551708655
4969,44.47126089919904
4970,44.45240135967567
4971,44.433892129737444
4972,44.41563877348067
4973,44.397547174692505
4974,44.379523527694815
4975,44.36147433218055
4976,44.34330639200828
4977,44.32492681792111
4978,44.30624303415601
4979,44.28716278890916
4980,44.267594168620924
4981,44.24744561604266
4982,44.22662595204412
4983,44.20504440111726
4984,44.18261062052828
4985,44.15923473306464
4986,44.13482736331926
4987,44.109299677447716
4988,44.08256342632843
4989,44.05453099204871
4990,44.02511543763236
4991,43.99423055991671
4992,43.961790945478825
4993,43.92771202950206
4994,43.89191015746501
4995,43.854302649526254
4996,43.81480786746805
4997,43.77334528405321
4998,43.7298355546391
4999,43.68420059088309
5000,43.63636363636363
5001,43.57759252432436
5002,43.49955646902172
5003,43.40281571674196
5004,43.28797214297553
5005,43.15566471462835
5006,43.0065648811084
5007,42.84137194595275
5008,42.660808467664836
5009,42.46561573480484
5010,42.25654935624882
5011,42.03437500303403
5012,41.79986433346927
5013,41.553791128329074
5014,41.29692765808235
5015,41.03004129932933
5016,40.75389141302195
5017,40.46922649269398
5018,40.176781586887465
5019,39.877275996272935
5020,39.57141124265414
5021,39.259869304140004
5022,38.943311108262996
5023,38.622375272721705
5024,38.29767708171185
5025,37.96980768446722
5026,37.639333501634766
5027,37.30679582442894
5028,36.97271059111774
5029,36.63756832525604
5030,36.301834220167414
5031,35.96594835445156
5032,35.63032602373059
5033,35.29535817441393
5034,34.96141192593095
5035,34.62883116862899
5036,34.297937225337535
5037,33.969029565439975
5038,33.64238656115183
5039,33.318266276566895
5040,32.99690728088482
5041,32.67852947806734
5042,32.36333494597561
5043,32.05150877881163
5044,31.74321992741817
5045,31.438622032679923
5046,31.13785424791131
5047,30.841042046713053
5048,30.548298013329017
5049,30.2597226130383
5050,29.975404940575128
5051,29.69542344498361
5052,29.419846629686294
5053,29.148733726877925
5054,28.88213534565108
5055,28.620094093520123
5056,28.362645171237705
5057,28.10981694099605
5058,27.86163146827512
5059,27.618105037745714
5060,27.379248643758004
5061,27.14506845604856
5062,26.915566261382832
5063,26.69073988191836
5064,26.47058357112662
5065,26.25508838815309
5066,26.04424255152366
5067,25.83803177312625
5068,25.636439573407706
5069,25.43944757873033
5070,25.247035801831263
5071,25.059182906320984
5072,24.87586645614665
5073,24.69706315093167
5074,24.52274904808661
5075,24.352899772567273
5076,24.187490715136185
5077,24.026497219962295
5078,23.86989476237226
5079,23.717659117545224
5080,23.56976652092123
5081,23.426193821073127
5082,23.286918625771342
5083,23.151919441952476
5084,23.02117581028475
5085,22.89466843500762
5086,22.77237930970816
5087,22.65429183968473
5088,22.54039096153762
5089,22.43066326061838
5090,22.325097086963435
5091,22.223682670334355
5092,22.126412234986223
5093,22.033280114787907
5094,21.94428286932291
5095,21.859419401608182
5096,21.77869107807974
5097,21.702101851509976
5098,21.62965838754073
5099,21.561370195539943
5100,21.497249764518738
5101,21.437312704878565
5102,21.38157789679754
5103,21.330067646109846
5104,21.282807848583346
5105,21.23982816355968
5106,21.201162197987188
5107,21.16684770195245
5108,21.136926776901415
5109,21.111446097836307
5110,21.090457150882607
5111,21.074016487741304
5112,21.062185998677275
5113,21.055033205847952
5114,21.052631578947366
5115,21.07692661875244
5116,21.148521579694773
5117,21.265915880645355
5118,21.42812919757413
5119,21.634641620904663
5120,21.885347589094316
5121,22.18052050423235
5122,22.520785602826418
5123,22.907099108025772
5124,23.340731978644925
5125,23.82325672703876
5126,24.35653582023489
5127,24.942710114819352
5128,25.584185606142462
5129,26.28361649041811
5130,27.04388213317794
5131,27.868054994695886
5132,28.75935586635926
5133,29.72109190746441
5134,30.756571933160576
5135,31.868992201677525
5136,33.06128462405098
5137,34.33591796624542
5138,35.6946414087746
5139,37.13815907370333
5140,38.66572429975384
5141,40.27464425093098
5142,41.959689867637714
5143,43.71241447947832
5144,45.520398058438296
5145,47.366454495291336
5146,49.22786722252779
5147,51.0757532735594
5148,52.874693995131636
5149,54.58280452546556
5150,56.152431234843476
5151,57.53164978446916
5152,58.66666895711227
5153,59.50511654815802
5154,60.0
5155,60.306016497061776
5156,60.60476411391996
5157,60.89619091878057
5158,61.18025553106931
5159,61.456927190517405
5160,61.726185798963364
5161,61.98802193513522
5162,62.242436842818734
5163,62.4894423929531
5164,62.72906102032678
5165,62.961325635669944
5166,63.18627951405686
5167,63.403976160640475
5168,63.614479154841405
5169,63.81786197420402
5170,64.01420779921384
5171,64.20360930044092
5172,64.38616840943526
5173,64.5619960748504
5174,64.73121200531185
5175,64.89394440057694
5176,65.05032967255275
5177,65.20051215774949
5178,65.34464382274734
5179,65.48288396424789
5180,65.61539890526443
5181,65.74236168898268
5182,65.86395177179199
5183,65.98035471695037
5184,66.09176189030367
5185,66.19837015943143
5186,66.30038159753967
5187,66.39800319336521
5188,66.49144656829777
5189,66.5809277018654
5190,66.66666666666667
5191,66.74737746980641
5192,66.82188295753124
5193,66.8905748016178
5194,66.95385134180339
5195,67.01211691167946
5196,67.06578120528043
5197,67.11525868699756
5198,67.16096804715207
5199,67.20333170527961
5200,67.242775362917
5201,67.2797276074397
5202,67.31461956828053
5203,67.34788462666685
5204,67.37995817984533
5205,67.41127746062445
5206,67.44228141295365
5207,67.47341062417611
5208,67.50510731454177
5209,67.53781538454577
5210,67.57198052066983
5211,67.60805036014676
5212,67.64647471544482
5213,67.68770585927821
5214,67.73219887109433
5215,67.7804120461678
5216,67.83280736864776
5217,67.88985105015969
5218,67.95201413585802
5219,68.0197731801636
5220,68.09361099480371
5221,68.17401747220467
5222,68.26149048777268
5223,68.35653688514302
5224,68.45967354908488
5225,68.57142857142857
5226,68.85872882661951
5227,69.47239303691428
5228,70.39420381218326
5229,71.6115199141265
5230,73.11552882189818
5231,74.89968202133348
5232,76.95815123805218
5233,79.28417052652028
5234,81.86814652527809
